SpectraSuite Data File
++++++++++++++++++++++++++++++++++++
Date: Mon Oct 13 14:56:11 PDT 2014
User: ugastro
Dark Spectrum Present: No
Reference Spectrum Present: No
Number of Sampled Component Spectra: 1
Spectrometers: USB2G5981
Integration Time (usec): 100000 (USB2G5981)
Spectra Averaged: 1 (USB2G5981)
Boxcar Smoothing: 0 (USB2G5981)
Correct for Electrical Dark: No (USB2G5981)
Strobe/Lamp Enabled: No (USB2G5981)
Correct for Detector Non-linearity: No (USB2G5981)
Correct for Stray Light: No (USB2G5981)
Number of Pixels in Processed Spectrum: 2048
>>>>>Begin Processed Spectral Data<<<<<
344.31	0.00
344.51	101.00
344.71	102.00
344.90	103.00
345.10	103.00
345.30	106.00
345.50	107.00
345.69	110.00
345.89	110.00
346.09	107.00
346.28	106.00
346.48	107.00
346.68	107.00
346.88	106.00
347.07	107.00
347.27	109.00
347.47	109.00
347.66	110.00
347.86	112.00
348.06	110.00
348.25	112.00
348.45	115.00
348.65	115.00
348.85	109.00
349.04	108.00
349.24	109.00
349.44	108.00
349.63	109.00
349.83	108.00
350.02	110.00
350.22	109.00
350.42	113.00
350.61	113.00
350.81	112.00
351.01	110.00
351.20	112.00
351.40	111.00
351.60	111.00
351.79	111.00
351.99	112.00
352.19	109.00
352.38	105.00
352.58	106.00
352.77	109.00
352.97	107.00
353.17	108.00
353.36	110.00
353.56	114.00
353.75	111.00
353.95	111.00
354.15	112.00
354.34	112.00
354.54	111.00
354.73	108.00
354.93	108.00
355.13	109.00
355.32	109.00
355.52	108.00
355.71	110.00
355.91	112.00
356.10	111.00
356.30	111.00
356.50	111.00
356.69	111.00
356.89	110.00
357.08	109.00
357.28	109.00
357.47	111.00
357.67	114.00
357.86	112.00
358.06	110.00
358.25	108.00
358.45	109.00
358.65	111.00
358.84	114.00
359.04	114.00
359.23	113.00
359.43	112.00
359.62	111.00
359.82	112.00
360.01	111.00
360.21	108.00
360.40	109.00
360.60	111.00
360.79	112.00
360.99	114.00
361.18	113.00
361.38	114.00
361.57	116.00
361.77	111.00
361.96	110.00
362.16	113.00
362.35	113.00
362.54	112.00
362.74	111.00
362.93	110.00
363.13	112.00
363.32	109.00
363.52	109.00
363.71	114.00
363.91	116.00
364.10	114.00
364.30	113.00
364.49	112.00
364.68	113.00
364.88	111.00
365.07	112.00
365.27	112.00
365.46	114.00
365.66	111.00
365.85	111.00
366.04	115.00
366.24	113.00
366.43	113.00
366.63	113.00
366.82	113.00
367.01	112.00
367.21	113.00
367.40	114.00
367.60	115.00
367.79	116.00
367.98	113.00
368.18	112.00
368.37	112.00
368.56	114.00
368.76	114.00
368.95	112.00
369.15	114.00
369.34	117.00
369.53	115.00
369.73	113.00
369.92	113.00
370.11	114.00
370.31	112.00
370.50	114.00
370.69	113.00
370.89	112.00
371.08	115.00
371.27	114.00
371.47	113.00
371.66	113.00
371.85	114.00
372.05	113.00
372.24	115.00
372.43	114.00
372.63	115.00
372.82	116.00
373.01	115.00
373.21	113.00
373.40	113.00
373.59	115.00
373.78	114.00
373.98	114.00
374.17	116.00
374.36	117.00
374.56	112.00
374.75	110.00
374.94	107.00
375.13	110.00
375.33	111.00
375.52	115.00
375.71	114.00
375.91	114.00
376.10	115.00
376.29	116.00
376.48	117.00
376.68	112.00
376.87	113.00
377.06	113.00
377.25	113.00
377.45	113.00
377.64	115.00
377.83	115.00
378.02	115.00
378.21	114.00
378.41	114.00
378.60	113.00
378.79	114.00
378.98	116.00
379.18	113.00
379.37	115.00
379.56	114.00
379.75	114.00
379.94	112.00
380.14	113.00
380.33	115.00
380.52	116.00
380.71	115.00
380.90	113.00
381.09	112.00
381.29	115.00
381.48	115.00
381.67	112.00
381.86	112.00
382.05	112.00
382.25	118.00
382.44	119.00
382.63	114.00
382.82	114.00
383.01	114.00
383.20	112.00
383.39	112.00
383.59	114.00
383.78	113.00
383.97	113.00
384.16	111.00
384.35	111.00
384.54	112.00
384.73	115.00
384.92	116.00
385.12	115.00
385.31	112.00
385.50	112.00
385.69	113.00
385.88	112.00
386.07	115.00
386.26	114.00
386.45	114.00
386.64	114.00
386.84	115.00
387.03	116.00
387.22	114.00
387.41	115.00
387.60	115.00
387.79	117.00
387.98	118.00
388.17	119.00
388.36	116.00
388.55	120.00
388.74	118.00
388.93	117.00
389.12	116.00
389.31	116.00
389.51	116.00
389.70	115.00
389.89	116.00
390.08	115.00
390.27	111.00
390.46	113.00
390.65	113.00
390.84	113.00
391.03	118.00
391.22	114.00
391.41	113.00
391.60	111.00
391.79	112.00
391.98	113.00
392.17	111.00
392.36	113.00
392.55	113.00
392.74	113.00
392.93	112.00
393.12	113.00
393.31	112.00
393.50	114.00
393.69	115.00
393.88	113.00
394.07	109.00
394.26	108.00
394.45	110.00
394.64	110.00
394.83	111.00
395.02	114.00
395.21	112.00
395.40	112.00
395.59	110.00
395.77	112.00
395.96	111.00
396.15	113.00
396.34	114.00
396.53	114.00
396.72	113.00
396.91	113.00
397.10	114.00
397.29	114.00
397.48	114.00
397.67	112.00
397.86	113.00
398.05	114.00
398.24	112.00
398.43	114.00
398.61	115.00
398.80	114.00
398.99	111.00
399.18	113.00
399.37	113.00
399.56	111.00
399.75	114.00
399.94	114.00
400.13	116.00
400.31	117.00
400.50	111.00
400.69	118.00
400.88	117.00
401.07	116.00
401.26	114.00
401.45	115.00
401.64	115.00
401.82	117.00
402.01	114.00
402.20	114.00
402.39	113.00
402.58	114.00
402.77	115.00
402.95	116.00
403.14	114.00
403.33	113.00
403.52	113.00
403.71	114.00
403.90	116.00
404.08	115.00
404.27	116.00
404.46	114.00
404.65	113.00
404.84	115.00
405.02	114.00
405.21	113.00
405.40	111.00
405.59	113.00
405.78	115.00
405.96	118.00
406.15	118.00
406.34	114.00
406.53	112.00
406.72	110.00
406.90	112.00
407.09	115.00
407.28	111.00
407.47	112.00
407.65	113.00
407.84	115.00
408.03	112.00
408.22	112.00
408.40	112.00
408.59	113.00
408.78	112.00
408.97	114.00
409.15	116.00
409.34	115.00
409.53	115.00
409.72	116.00
409.90	114.00
410.09	116.00
410.28	116.00
410.47	117.00
410.65	115.00
410.84	110.00
411.03	108.00
411.21	113.00
411.40	112.00
411.59	111.00
411.78	112.00
411.96	109.00
412.15	109.00
412.34	112.00
412.52	114.00
412.71	113.00
412.90	111.00
413.08	111.00
413.27	110.00
413.46	111.00
413.64	111.00
413.83	112.00
414.02	112.00
414.20	112.00
414.39	115.00
414.58	113.00
414.76	113.00
414.95	113.00
415.14	116.00
415.32	114.00
415.51	117.00
415.69	115.00
415.88	112.00
416.07	112.00
416.25	113.00
416.44	109.00
416.63	110.00
416.81	112.00
417.00	113.00
417.18	111.00
417.37	112.00
417.56	113.00
417.74	115.00
417.93	113.00
418.11	112.00
418.30	113.00
418.49	113.00
418.67	113.00
418.86	113.00
419.04	115.00
419.23	114.00
419.42	114.00
419.60	111.00
419.79	110.00
419.97	114.00
420.16	117.00
420.34	116.00
420.53	114.00
420.72	113.00
420.90	114.00
421.09	114.00
421.27	114.00
421.46	114.00
421.64	111.00
421.83	113.00
422.01	117.00
422.20	114.00
422.38	111.00
422.57	112.00
422.75	115.00
422.94	115.00
423.12	114.00
423.31	113.00
423.49	113.00
423.68	113.00
423.86	113.00
424.05	114.00
424.23	112.00
424.42	112.00
424.60	115.00
424.79	116.00
424.97	114.00
425.16	113.00
425.34	113.00
425.53	113.00
425.71	114.00
425.90	116.00
426.08	116.00
426.27	115.00
426.45	116.00
426.64	112.00
426.82	109.00
427.01	110.00
427.19	114.00
427.38	118.00
427.56	112.00
427.74	112.00
427.93	115.00
428.11	114.00
428.30	112.00
428.48	113.00
428.67	112.00
428.85	112.00
429.03	112.00
429.22	119.00
429.40	117.00
429.59	113.00
429.77	109.00
429.95	109.00
430.14	107.00
430.32	108.00
430.51	109.00
430.69	109.00
430.87	112.00
431.06	114.00
431.24	111.00
431.43	111.00
431.61	110.00
431.79	112.00
431.98	114.00
432.16	113.00
432.34	114.00
432.53	113.00
432.71	112.00
432.90	113.00
433.08	115.00
433.26	116.00
433.45	113.00
433.63	110.00
433.81	111.00
434.00	115.00
434.18	116.00
434.36	115.00
434.55	116.00
434.73	114.00
434.91	111.00
435.10	111.00
435.28	113.00
435.46	115.00
435.65	111.00
435.83	112.00
436.01	112.00
436.20	111.00
436.38	111.00
436.56	113.00
436.74	112.00
436.93	111.00
437.11	112.00
437.29	116.00
437.48	115.00
437.66	116.00
437.84	113.00
438.02	111.00
438.21	111.00
438.39	109.00
438.57	110.00
438.75	114.00
438.94	113.00
439.12	113.00
439.30	116.00
439.48	113.00
439.67	114.00
439.85	117.00
440.03	113.00
440.21	112.00
440.40	109.00
440.58	112.00
440.76	112.00
440.94	110.00
441.13	114.00
441.31	113.00
441.49	114.00
441.67	111.00
441.85	109.00
442.04	113.00
442.22	114.00
442.40	113.00
442.58	108.00
442.76	110.00
442.95	115.00
443.13	113.00
443.31	111.00
443.49	113.00
443.67	110.00
443.86	112.00
444.04	111.00
444.22	109.00
444.40	111.00
444.58	111.00
444.76	114.00
444.95	113.00
445.13	111.00
445.31	111.00
445.49	114.00
445.67	111.00
445.85	112.00
446.04	112.00
446.22	112.00
446.40	111.00
446.58	112.00
446.76	111.00
446.94	111.00
447.12	112.00
447.30	111.00
447.49	109.00
447.67	110.00
447.85	114.00
448.03	113.00
448.21	110.00
448.39	112.00
448.57	112.00
448.75	115.00
448.93	113.00
449.12	114.00
449.30	112.00
449.48	110.00
449.66	109.00
449.84	113.00
450.02	116.00
450.20	114.00
450.38	118.00
450.56	116.00
450.74	114.00
450.92	110.00
451.10	110.00
451.28	112.00
451.46	112.00
451.64	113.00
451.83	112.00
452.01	114.00
452.19	114.00
452.37	113.00
452.55	114.00
452.73	113.00
452.91	110.00
453.09	113.00
453.27	112.00
453.45	112.00
453.63	114.00
453.81	111.00
453.99	111.00
454.17	111.00
454.35	113.00
454.53	112.00
454.71	114.00
454.89	113.00
455.07	114.00
455.25	114.00
455.43	112.00
455.61	111.00
455.79	113.00
455.97	113.00
456.15	113.00
456.33	111.00
456.51	112.00
456.69	113.00
456.87	112.00
457.05	111.00
457.23	111.00
457.41	111.00
457.59	111.00
457.76	115.00
457.94	112.00
458.12	111.00
458.30	113.00
458.48	111.00
458.66	113.00
458.84	113.00
459.02	109.00
459.20	110.00
459.38	112.00
459.56	112.00
459.74	110.00
459.92	109.00
460.10	110.00
460.27	113.00
460.45	112.00
460.63	112.00
460.81	109.00
460.99	109.00
461.17	111.00
461.35	112.00
461.53	111.00
461.71	110.00
461.88	111.00
462.06	112.00
462.24	110.00
462.42	111.00
462.60	114.00
462.78	113.00
462.96	113.00
463.14	111.00
463.31	112.00
463.49	113.00
463.67	111.00
463.85	110.00
464.03	110.00
464.21	112.00
464.38	112.00
464.56	110.00
464.74	112.00
464.92	112.00
465.10	113.00
465.28	112.00
465.45	114.00
465.63	114.00
465.81	114.00
465.99	114.00
466.17	113.00
466.35	113.00
466.52	117.00
466.70	113.00
466.88	110.00
467.06	112.00
467.24	114.00
467.41	112.00
467.59	113.00
467.77	115.00
467.95	113.00
468.12	113.00
468.30	113.00
468.48	114.00
468.66	112.00
468.84	111.00
469.01	113.00
469.19	115.00
469.37	112.00
469.55	112.00
469.72	111.00
469.90	111.00
470.08	112.00
470.26	110.00
470.43	110.00
470.61	110.00
470.79	110.00
470.96	111.00
471.14	110.00
471.32	108.00
471.50	110.00
471.67	108.00
471.85	110.00
472.03	113.00
472.20	114.00
472.38	116.00
472.56	116.00
472.74	114.00
472.91	111.00
473.09	109.00
473.27	111.00
473.44	112.00
473.62	111.00
473.80	112.00
473.97	113.00
474.15	111.00
474.33	110.00
474.50	111.00
474.68	114.00
474.86	114.00
475.03	113.00
475.21	112.00
475.39	113.00
475.56	113.00
475.74	110.00
475.92	111.00
476.09	111.00
476.27	112.00
476.45	110.00
476.62	108.00
476.80	111.00
476.97	110.00
477.15	111.00
477.33	114.00
477.50	112.00
477.68	111.00
477.86	114.00
478.03	112.00
478.21	111.00
478.38	109.00
478.56	112.00
478.74	113.00
478.91	116.00
479.09	116.00
479.26	116.00
479.44	115.00
479.62	114.00
479.79	114.00
479.97	114.00
480.14	115.00
480.32	115.00
480.49	112.00
480.67	112.00
480.85	111.00
481.02	110.00
481.20	110.00
481.37	113.00
481.55	114.00
481.72	110.00
481.90	111.00
482.07	110.00
482.25	112.00
482.42	111.00
482.60	110.00
482.78	112.00
482.95	110.00
483.13	111.00
483.30	113.00
483.48	111.00
483.65	112.00
483.83	110.00
484.00	114.00
484.18	110.00
484.35	110.00
484.53	116.00
484.70	114.00
484.88	112.00
485.05	110.00
485.23	110.00
485.40	111.00
485.58	112.00
485.75	111.00
485.93	108.00
486.10	109.00
486.27	111.00
486.45	112.00
486.62	110.00
486.80	109.00
486.97	110.00
487.15	110.00
487.32	110.00
487.50	111.00
487.67	111.00
487.85	113.00
488.02	111.00
488.19	114.00
488.37	113.00
488.54	110.00
488.72	110.00
488.89	111.00
489.07	112.00
489.24	113.00
489.41	112.00
489.59	112.00
489.76	113.00
489.94	110.00
490.11	112.00
490.28	110.00
490.46	111.00
490.63	112.00
490.81	108.00
490.98	111.00
491.15	117.00
491.33	115.00
491.50	114.00
491.68	115.00
491.85	113.00
492.02	113.00
492.20	112.00
492.37	111.00
492.54	111.00
492.72	109.00
492.89	110.00
493.06	111.00
493.24	110.00
493.41	111.00
493.58	110.00
493.76	111.00
493.93	113.00
494.10	112.00
494.28	110.00
494.45	109.00
494.62	110.00
494.80	113.00
494.97	113.00
495.14	108.00
495.32	110.00
495.49	113.00
495.66	113.00
495.84	112.00
496.01	117.00
496.18	114.00
496.36	113.00
496.53	115.00
496.70	113.00
496.87	113.00
497.05	112.00
497.22	114.00
497.39	112.00
497.57	108.00
497.74	110.00
497.91	112.00
498.08	110.00
498.26	112.00
498.43	112.00
498.60	109.00
498.77	110.00
498.95	112.00
499.12	106.00
499.29	109.00
499.46	110.00
499.64	111.00
499.81	111.00
499.98	110.00
500.15	113.00
500.33	113.00
500.50	112.00
500.67	113.00
500.84	112.00
501.01	109.00
501.19	109.00
501.36	111.00
501.53	109.00
501.70	110.00
501.87	112.00
502.05	115.00
502.22	113.00
502.39	110.00
502.56	110.00
502.73	113.00
502.91	112.00
503.08	110.00
503.25	111.00
503.42	112.00
503.59	112.00
503.77	114.00
503.94	115.00
504.11	109.00
504.28	107.00
504.45	107.00
504.62	108.00
504.79	109.00
504.97	109.00
505.14	109.00
505.31	112.00
505.48	110.00
505.65	108.00
505.82	110.00
505.99	108.00
506.17	111.00
506.34	112.00
506.51	112.00
506.68	112.00
506.85	111.00
507.02	115.00
507.19	115.00
507.36	113.00
507.53	114.00
507.71	111.00
507.88	109.00
508.05	110.00
508.22	114.00
508.39	115.00
508.56	115.00
508.73	112.00
508.90	112.00
509.07	113.00
509.24	110.00
509.41	109.00
509.58	112.00
509.76	110.00
509.93	111.00
510.10	112.00
510.27	111.00
510.44	112.00
510.61	112.00
510.78	115.00
510.95	115.00
511.12	115.00
511.29	115.00
511.46	113.00
511.63	113.00
511.80	110.00
511.97	110.00
512.14	110.00
512.31	111.00
512.48	113.00
512.65	113.00
512.82	114.00
512.99	114.00
513.16	114.00
513.33	111.00
513.50	107.00
513.67	109.00
513.84	111.00
514.01	110.00
514.18	109.00
514.35	108.00
514.52	109.00
514.69	111.00
514.86	113.00
515.03	109.00
515.20	110.00
515.37	111.00
515.54	109.00
515.71	111.00
515.88	113.00
516.05	118.00
516.22	116.00
516.39	112.00
516.56	112.00
516.73	114.00
516.90	113.00
517.06	114.00
517.23	112.00
517.40	111.00
517.57	110.00
517.74	109.00
517.91	111.00
518.08	114.00
518.25	113.00
518.42	108.00
518.59	109.00
518.76	109.00
518.93	110.00
519.09	109.00
519.26	108.00
519.43	109.00
519.60	111.00
519.77	115.00
519.94	113.00
520.11	112.00
520.28	112.00
520.45	117.00
520.61	111.00
520.78	111.00
520.95	112.00
521.12	110.00
521.29	113.00
521.46	113.00
521.63	111.00
521.79	109.00
521.96	108.00
522.13	108.00
522.30	108.00
522.47	109.00
522.64	114.00
522.80	115.00
522.97	113.00
523.14	111.00
523.31	113.00
523.48	113.00
523.65	110.00
523.81	110.00
523.98	111.00
524.15	111.00
524.32	111.00
524.49	113.00
524.65	113.00
524.82	112.00
524.99	111.00
525.16	111.00
525.33	111.00
525.49	115.00
525.66	113.00
525.83	111.00
526.00	111.00
526.17	112.00
526.33	113.00
526.50	112.00
526.67	115.00
526.84	114.00
527.00	114.00
527.17	114.00
527.34	114.00
527.51	112.00
527.67	111.00
527.84	108.00
528.01	109.00
528.18	115.00
528.34	115.00
528.51	112.00
528.68	110.00
528.85	111.00
529.01	113.00
529.18	112.00
529.35	111.00
529.51	111.00
529.68	114.00
529.85	113.00
530.02	112.00
530.18	111.00
530.35	113.00
530.52	114.00
530.68	111.00
530.85	111.00
531.02	110.00
531.18	111.00
531.35	114.00
531.52	111.00
531.68	111.00
531.85	112.00
532.02	110.00
532.18	110.00
532.35	108.00
532.52	110.00
532.68	112.00
532.85	112.00
533.02	112.00
533.18	111.00
533.35	109.00
533.52	110.00
533.68	111.00
533.85	111.00
534.02	110.00
534.18	114.00
534.35	113.00
534.51	110.00
534.68	110.00
534.85	111.00
535.01	115.00
535.18	112.00
535.35	109.00
535.51	111.00
535.68	110.00
535.84	110.00
536.01	110.00
536.18	112.00
536.34	113.00
536.51	110.00
536.67	108.00
536.84	109.00
537.00	110.00
537.17	109.00
537.34	110.00
537.50	110.00
537.67	110.00
537.83	114.00
538.00	113.00
538.16	115.00
538.33	114.00
538.50	114.00
538.66	111.00
538.83	109.00
538.99	111.00
539.16	111.00
539.32	114.00
539.49	112.00
539.65	111.00
539.82	111.00
539.98	109.00
540.15	109.00
540.31	113.00
540.48	111.00
540.65	113.00
540.81	115.00
540.98	113.00
541.14	114.00
541.31	112.00
541.47	110.00
541.64	112.00
541.80	111.00
541.97	112.00
542.13	110.00
542.29	109.00
542.46	110.00
542.62	110.00
542.79	113.00
542.95	112.00
543.12	111.00
543.28	111.00
543.45	111.00
543.61	113.00
543.78	114.00
543.94	111.00
544.11	110.00
544.27	112.00
544.44	110.00
544.60	108.00
544.76	111.00
544.93	111.00
545.09	112.00
545.26	110.00
545.42	111.00
545.59	110.00
545.75	114.00
545.91	112.00
546.08	111.00
546.24	110.00
546.41	109.00
546.57	111.00
546.73	110.00
546.90	112.00
547.06	112.00
547.23	112.00
547.39	113.00
547.55	112.00
547.72	111.00
547.88	112.00
548.05	113.00
548.21	112.00
548.37	111.00
548.54	112.00
548.70	112.00
548.86	113.00
549.03	114.00
549.19	112.00
549.36	109.00
549.52	110.00
549.68	111.00
549.85	113.00
550.01	117.00
550.17	114.00
550.34	112.00
550.50	114.00
550.66	115.00
550.83	114.00
550.99	114.00
551.15	114.00
551.32	115.00
551.48	112.00
551.64	111.00
551.81	110.00
551.97	109.00
552.13	108.00
552.29	110.00
552.46	111.00
552.62	113.00
552.78	112.00
552.95	111.00
553.11	110.00
553.27	111.00
553.43	110.00
553.60	112.00
553.76	113.00
553.92	111.00
554.09	110.00
554.25	110.00
554.41	110.00
554.57	111.00
554.74	113.00
554.90	110.00
555.06	111.00
555.22	110.00
555.39	113.00
555.55	111.00
555.71	109.00
555.87	110.00
556.04	109.00
556.20	110.00
556.36	108.00
556.52	109.00
556.69	112.00
556.85	112.00
557.01	110.00
557.17	111.00
557.33	111.00
557.50	113.00
557.66	113.00
557.82	111.00
557.98	109.00
558.14	110.00
558.31	111.00
558.47	111.00
558.63	110.00
558.79	112.00
558.95	112.00
559.12	112.00
559.28	113.00
559.44	112.00
559.60	111.00
559.76	111.00
559.92	112.00
560.09	112.00
560.25	110.00
560.41	111.00
560.57	110.00
560.73	114.00
560.89	115.00
561.05	112.00
561.22	111.00
561.38	111.00
561.54	109.00
561.70	112.00
561.86	111.00
562.02	110.00
562.18	110.00
562.34	115.00
562.51	115.00
562.67	114.00
562.83	113.00
562.99	113.00
563.15	113.00
563.31	115.00
563.47	115.00
563.63	112.00
563.79	111.00
563.95	114.00
564.12	113.00
564.28	113.00
564.44	114.00
564.60	114.00
564.76	112.00
564.92	112.00
565.08	115.00
565.24	112.00
565.40	109.00
565.56	112.00
565.72	112.00
565.88	113.00
566.04	111.00
566.20	110.00
566.36	110.00
566.52	110.00
566.69	113.00
566.85	113.00
567.01	114.00
567.17	114.00
567.33	114.00
567.49	111.00
567.65	111.00
567.81	110.00
567.97	113.00
568.13	112.00
568.29	111.00
568.45	110.00
568.61	110.00
568.77	109.00
568.93	113.00
569.09	115.00
569.25	111.00
569.41	109.00
569.57	110.00
569.73	108.00
569.89	109.00
570.05	111.00
570.21	112.00
570.37	109.00
570.53	109.00
570.68	109.00
570.84	111.00
571.00	111.00
571.16	112.00
571.32	113.00
571.48	113.00
571.64	112.00
571.80	109.00
571.96	112.00
572.12	110.00
572.28	111.00
572.44	110.00
572.60	113.00
572.76	112.00
572.92	111.00
573.08	113.00
573.23	115.00
573.39	114.00
573.55	113.00
573.71	114.00
573.87	114.00
574.03	113.00
574.19	113.00
574.35	114.00
574.51	112.00
574.67	111.00
574.82	114.00
574.98	111.00
575.14	111.00
575.30	111.00
575.46	110.00
575.62	110.00
575.78	111.00
575.94	112.00
576.09	110.00
576.25	110.00
576.41	109.00
576.57	108.00
576.73	111.00
576.89	110.00
577.05	110.00
577.20	112.00
577.36	110.00
577.52	112.00
577.68	113.00
577.84	111.00
578.00	113.00
578.15	114.00
578.31	114.00
578.47	112.00
578.63	111.00
578.79	111.00
578.94	110.00
579.10	108.00
579.26	108.00
579.42	109.00
579.58	109.00
579.73	108.00
579.89	107.00
580.05	107.00
580.21	111.00
580.37	114.00
580.52	112.00
580.68	109.00
580.84	109.00
581.00	111.00
581.15	111.00
581.31	112.00
581.47	112.00
581.63	111.00
581.78	112.00
581.94	112.00
582.10	117.00
582.26	115.00
582.41	113.00
582.57	111.00
582.73	110.00
582.89	112.00
583.04	112.00
583.20	113.00
583.36	114.00
583.52	113.00
583.67	110.00
583.83	111.00
583.99	111.00
584.14	112.00
584.30	114.00
584.46	112.00
584.62	110.00
584.77	111.00
584.93	111.00
585.09	115.00
585.24	112.00
585.40	111.00
585.56	114.00
585.71	114.00
585.87	111.00
586.03	114.00
586.18	113.00
586.34	112.00
586.50	112.00
586.65	113.00
586.81	112.00
586.97	113.00
587.12	114.00
587.28	113.00
587.44	113.00
587.59	111.00
587.75	110.00
587.91	113.00
588.06	112.00
588.22	113.00
588.37	114.00
588.53	114.00
588.69	116.00
588.84	113.00
589.00	111.00
589.16	110.00
589.31	114.00
589.47	114.00
589.62	110.00
589.78	112.00
589.94	112.00
590.09	110.00
590.25	110.00
590.40	111.00
590.56	112.00
590.72	112.00
590.87	112.00
591.03	113.00
591.18	113.00
591.34	111.00
591.49	110.00
591.65	110.00
591.81	109.00
591.96	107.00
592.12	109.00
592.27	109.00
592.43	112.00
592.58	112.00
592.74	115.00
592.89	114.00
593.05	114.00
593.21	111.00
593.36	107.00
593.52	106.00
593.67	111.00
593.83	112.00
593.98	114.00
594.14	114.00
594.29	112.00
594.45	110.00
594.60	111.00
594.76	112.00
594.91	110.00
595.07	112.00
595.22	111.00
595.38	111.00
595.53	109.00
595.69	109.00
595.84	109.00
596.00	108.00
596.15	114.00
596.31	116.00
596.46	112.00
596.62	110.00
596.77	111.00
596.93	114.00
597.08	115.00
597.23	112.00
597.39	110.00
597.54	111.00
597.70	113.00
597.85	114.00
598.01	114.00
598.16	113.00
598.32	110.00
598.47	114.00
598.62	112.00
598.78	111.00
598.93	113.00
599.09	112.00
599.24	113.00
599.40	115.00
599.55	115.00
599.70	113.00
599.86	111.00
600.01	114.00
600.17	114.00
600.32	112.00
600.47	113.00
600.63	110.00
600.78	109.00
600.94	110.00
601.09	108.00
601.24	109.00
601.40	113.00
601.55	114.00
601.70	111.00
601.86	110.00
602.01	113.00
602.17	114.00
602.32	112.00
602.47	112.00
602.63	112.00
602.78	111.00
602.93	111.00
603.09	111.00
603.24	110.00
603.39	112.00
603.55	112.00
603.70	111.00
603.85	117.00
604.01	113.00
604.16	112.00
604.31	110.00
604.47	109.00
604.62	109.00
604.77	110.00
604.93	114.00
605.08	113.00
605.23	114.00
605.39	113.00
605.54	116.00
605.69	111.00
605.84	114.00
606.00	112.00
606.15	110.00
606.30	110.00
606.46	109.00
606.61	108.00
606.76	109.00
606.91	110.00
607.07	107.00
607.22	109.00
607.37	111.00
607.52	111.00
607.68	110.00
607.83	109.00
607.98	111.00
608.13	111.00
608.29	111.00
608.44	110.00
608.59	109.00
608.74	109.00
608.90	109.00
609.05	110.00
609.20	110.00
609.35	111.00
609.51	111.00
609.66	114.00
609.81	112.00
609.96	111.00
610.11	112.00
610.27	113.00
610.42	114.00
610.57	115.00
610.72	111.00
610.87	110.00
611.03	110.00
611.18	111.00
611.33	112.00
611.48	109.00
611.63	109.00
611.78	108.00
611.94	109.00
612.09	111.00
612.24	110.00
612.39	112.00
612.54	113.00
612.69	112.00
612.85	111.00
613.00	108.00
613.15	105.00
613.30	109.00
613.45	110.00
613.60	111.00
613.75	111.00
613.91	111.00
614.06	108.00
614.21	112.00
614.36	112.00
614.51	114.00
614.66	111.00
614.81	109.00
614.96	110.00
615.12	109.00
615.27	111.00
615.42	110.00
615.57	109.00
615.72	112.00
615.87	114.00
616.02	113.00
616.17	119.00
616.32	118.00
616.47	114.00
616.63	111.00
616.78	110.00
616.93	113.00
617.08	113.00
617.23	111.00
617.38	111.00
617.53	112.00
617.68	112.00
617.83	116.00
617.98	116.00
618.13	116.00
618.28	114.00
618.43	112.00
618.58	110.00
618.73	114.00
618.88	115.00
619.03	113.00
619.18	112.00
619.33	113.00
619.48	113.00
619.63	114.00
619.79	112.00
619.94	109.00
620.09	109.00
620.24	112.00
620.39	113.00
620.54	113.00
620.69	117.00
620.84	116.00
620.99	113.00
621.14	115.00
621.29	113.00
621.44	110.00
621.58	109.00
621.73	110.00
621.88	110.00
622.03	110.00
622.18	110.00
622.33	112.00
622.48	109.00
622.63	107.00
622.78	108.00
622.93	110.00
623.08	113.00
623.23	114.00
623.38	111.00
623.53	113.00
623.68	114.00
623.83	112.00
623.98	108.00
624.13	110.00
624.28	110.00
624.43	110.00
624.58	111.00
624.72	112.00
624.87	112.00
625.02	110.00
625.17	110.00
625.32	111.00
625.47	113.00
625.62	113.00
625.77	112.00
625.92	110.00
626.07	107.00
626.21	108.00
626.36	109.00
626.51	111.00
626.66	112.00
626.81	111.00
626.96	110.00
627.11	111.00
627.26	112.00
627.40	109.00
627.55	108.00
627.70	109.00
627.85	110.00
628.00	109.00
628.15	108.00
628.30	109.00
628.44	109.00
628.59	111.00
628.74	110.00
628.89	114.00
629.04	112.00
629.19	112.00
629.33	110.00
629.48	110.00
629.63	110.00
629.78	111.00
629.93	112.00
630.08	111.00
630.22	109.00
630.37	109.00
630.52	111.00
630.67	112.00
630.82	114.00
630.96	112.00
631.11	110.00
631.26	109.00
631.41	110.00
631.55	111.00
631.70	113.00
631.85	112.00
632.00	113.00
632.15	112.00
632.29	108.00
632.44	109.00
632.59	111.00
632.74	112.00
632.88	112.00
633.03	110.00
633.18	111.00
633.33	110.00
633.47	110.00
633.62	110.00
633.77	111.00
633.92	109.00
634.06	109.00
634.21	109.00
634.36	110.00
634.51	111.00
634.65	112.00
634.80	111.00
634.95	109.00
635.09	111.00
635.24	109.00
635.39	109.00
635.53	111.00
635.68	108.00
635.83	109.00
635.98	110.00
636.12	107.00
636.27	111.00
636.42	110.00
636.56	108.00
636.71	111.00
636.86	111.00
637.00	113.00
637.15	112.00
637.30	111.00
637.44	109.00
637.59	109.00
637.74	106.00
637.88	111.00
638.03	116.00
638.18	111.00
638.32	109.00
638.47	111.00
638.62	109.00
638.76	108.00
638.91	109.00
639.05	113.00
639.20	112.00
639.35	113.00
639.49	109.00
639.64	108.00
639.79	110.00
639.93	112.00
640.08	110.00
640.22	112.00
640.37	113.00
640.52	110.00
640.66	110.00
640.81	111.00
640.95	109.00
641.10	109.00
641.25	111.00
641.39	112.00
641.54	111.00
641.68	112.00
641.83	111.00
641.97	110.00
642.12	110.00
642.27	111.00
642.41	111.00
642.56	113.00
642.70	119.00
642.85	118.00
642.99	112.00
643.14	115.00
643.28	114.00
643.43	111.00
643.57	113.00
643.72	115.00
643.87	114.00
644.01	114.00
644.16	114.00
644.30	111.00
644.45	112.00
644.59	113.00
644.74	109.00
644.88	111.00
645.03	114.00
645.17	112.00
645.32	114.00
645.46	113.00
645.61	111.00
645.75	112.00
645.90	114.00
646.04	112.00
646.19	111.00
646.33	113.00
646.48	111.00
646.62	110.00
646.77	111.00
646.91	114.00
647.05	112.00
647.20	113.00
647.34	113.00
647.49	111.00
647.63	110.00
647.78	111.00
647.92	111.00
648.07	111.00
648.21	110.00
648.36	110.00
648.50	110.00
648.64	109.00
648.79	111.00
648.93	112.00
649.08	113.00
649.22	113.00
649.37	117.00
649.51	115.00
649.65	110.00
649.80	108.00
649.94	110.00
650.09	110.00
650.23	111.00
650.37	110.00
650.52	109.00
650.66	109.00
650.81	111.00
650.95	112.00
651.09	111.00
651.24	111.00
651.38	109.00
651.52	108.00
651.67	109.00
651.81	108.00
651.96	108.00
652.10	109.00
652.24	113.00
652.39	111.00
652.53	110.00
652.67	109.00
652.82	114.00
652.96	113.00
653.10	114.00
653.25	114.00
653.39	109.00
653.53	110.00
653.68	110.00
653.82	110.00
653.96	107.00
654.11	106.00
654.25	108.00
654.39	110.00
654.54	111.00
654.68	112.00
654.82	108.00
654.97	107.00
655.11	110.00
655.25	116.00
655.39	112.00
655.54	111.00
655.68	110.00
655.82	112.00
655.97	110.00
656.11	110.00
656.25	109.00
656.39	107.00
656.54	109.00
656.68	111.00
656.82	110.00
656.96	113.00
657.11	112.00
657.25	113.00
657.39	112.00
657.53	111.00
657.68	109.00
657.82	110.00
657.96	110.00
658.10	111.00
658.25	112.00
658.39	111.00
658.53	109.00
658.67	110.00
658.82	111.00
658.96	112.00
659.10	110.00
659.24	110.00
659.38	110.00
659.53	110.00
659.67	110.00
659.81	110.00
659.95	109.00
660.09	112.00
660.24	111.00
660.38	109.00
660.52	108.00
660.66	109.00
660.80	113.00
660.95	109.00
661.09	107.00
661.23	109.00
661.37	109.00
661.51	112.00
661.65	115.00
661.80	114.00
661.94	109.00
662.08	111.00
662.22	109.00
662.36	112.00
662.50	113.00
662.64	116.00
662.79	117.00
662.93	115.00
663.07	115.00
663.21	115.00
663.35	114.00
663.49	113.00
663.63	112.00
663.77	110.00
663.92	109.00
664.06	109.00
664.20	113.00
664.34	114.00
664.48	111.00
664.62	116.00
664.76	115.00
664.90	109.00
665.04	108.00
665.18	109.00
665.33	109.00
665.47	112.00
665.61	110.00
665.75	109.00
665.89	111.00
666.03	114.00
666.17	114.00
666.31	110.00
666.45	113.00
666.59	112.00
666.73	112.00
666.87	112.00
667.01	112.00
667.15	111.00
667.29	115.00
667.43	115.00
667.57	109.00
667.71	108.00
667.86	109.00
668.00	112.00
668.14	112.00
668.28	112.00
668.42	112.00
668.56	112.00
668.70	112.00
668.84	115.00
668.98	114.00
669.12	111.00
669.26	112.00
669.40	112.00
669.54	113.00
669.68	113.00
669.82	113.00
669.96	113.00
670.10	112.00
670.24	112.00
670.38	112.00
670.52	111.00
670.66	112.00
670.79	108.00
670.93	110.00
671.07	111.00
671.21	113.00
671.35	112.00
671.49	112.00
671.63	111.00
671.77	111.00
671.91	111.00
672.05	111.00
672.19	111.00
672.33	109.00
672.47	110.00
672.61	113.00
672.75	112.00
672.89	112.00
673.03	111.00
673.16	110.00
673.30	111.00
673.44	110.00
673.58	109.00
673.72	111.00
673.86	110.00
674.00	111.00
674.14	112.00
674.28	112.00
674.42	109.00
674.55	108.00
674.69	113.00
674.83	112.00
674.97	113.00
675.11	113.00
675.25	113.00
675.39	115.00
675.53	117.00
675.66	113.00
675.80	112.00
675.94	111.00
676.08	109.00
676.22	109.00
676.36	111.00
676.50	114.00
676.63	113.00
676.77	112.00
676.91	109.00
677.05	112.00
677.19	112.00
677.33	112.00
677.46	109.00
677.60	110.00
677.74	111.00
677.88	110.00
678.02	108.00
678.16	109.00
678.29	113.00
678.43	115.00
678.57	111.00
678.71	110.00
678.85	109.00
678.98	111.00
679.12	110.00
679.26	111.00
679.40	113.00
679.53	114.00
679.67	112.00
679.81	114.00
679.95	113.00
680.09	113.00
680.22	114.00
680.36	112.00
680.50	111.00
680.64	113.00
680.77	111.00
680.91	112.00
681.05	113.00
681.19	113.00
681.32	110.00
681.46	113.00
681.60	112.00
681.74	110.00
681.87	114.00
682.01	114.00
682.15	111.00
682.28	111.00
682.42	109.00
682.56	110.00
682.70	111.00
682.83	112.00
682.97	112.00
683.11	112.00
683.24	111.00
683.38	110.00
683.52	110.00
683.65	114.00
683.79	111.00
683.93	112.00
684.07	112.00
684.20	113.00
684.34	112.00
684.48	110.00
684.61	110.00
684.75	113.00
684.89	112.00
685.02	116.00
685.16	114.00
685.30	111.00
685.43	110.00
685.57	112.00
685.70	113.00
685.84	114.00
685.98	112.00
>>>>>End Processed Spectral Data<<<<<
