SpectraSuite Data File
++++++++++++++++++++++++++++++++++++
Date: Mon Oct 13 14:47:38 PDT 2014
User: ugastro
Dark Spectrum Present: No
Reference Spectrum Present: No
Number of Sampled Component Spectra: 1
Spectrometers: USB2G5981
Integration Time (usec): 100000 (USB2G5981)
Spectra Averaged: 1 (USB2G5981)
Boxcar Smoothing: 0 (USB2G5981)
Correct for Electrical Dark: No (USB2G5981)
Strobe/Lamp Enabled: No (USB2G5981)
Correct for Detector Non-linearity: No (USB2G5981)
Correct for Stray Light: No (USB2G5981)
Number of Pixels in Processed Spectrum: 2048
>>>>>Begin Processed Spectral Data<<<<<
344.31	0.00
344.51	103.00
344.71	104.00
344.90	104.00
345.10	104.00
345.30	105.00
345.50	108.00
345.69	110.00
345.89	109.00
346.09	111.00
346.28	112.00
346.48	113.00
346.68	113.00
346.88	115.00
347.07	115.00
347.27	114.00
347.47	112.00
347.66	110.00
347.86	112.00
348.06	113.00
348.25	112.00
348.45	114.00
348.65	113.00
348.85	114.00
349.04	110.00
349.24	113.00
349.44	116.00
349.63	113.00
349.83	109.00
350.02	112.00
350.22	113.00
350.42	112.00
350.61	114.00
350.81	113.00
351.01	111.00
351.20	111.00
351.40	111.00
351.60	114.00
351.79	116.00
351.99	112.00
352.19	111.00
352.38	112.00
352.58	113.00
352.77	111.00
352.97	110.00
353.17	110.00
353.36	112.00
353.56	111.00
353.75	113.00
353.95	110.00
354.15	110.00
354.34	110.00
354.54	113.00
354.73	114.00
354.93	113.00
355.13	113.00
355.32	112.00
355.52	113.00
355.71	114.00
355.91	114.00
356.10	114.00
356.30	114.00
356.50	111.00
356.69	114.00
356.89	113.00
357.08	112.00
357.28	112.00
357.47	112.00
357.67	114.00
357.86	116.00
358.06	112.00
358.25	113.00
358.45	112.00
358.65	112.00
358.84	115.00
359.04	114.00
359.23	117.00
359.43	116.00
359.62	114.00
359.82	111.00
360.01	111.00
360.21	113.00
360.40	113.00
360.60	115.00
360.79	112.00
360.99	109.00
361.18	108.00
361.38	111.00
361.57	114.00
361.77	112.00
361.96	115.00
362.16	116.00
362.35	114.00
362.54	114.00
362.74	115.00
362.93	114.00
363.13	116.00
363.32	114.00
363.52	112.00
363.71	113.00
363.91	114.00
364.10	115.00
364.30	117.00
364.49	116.00
364.68	114.00
364.88	114.00
365.07	116.00
365.27	117.00
365.46	119.00
365.66	115.00
365.85	115.00
366.04	115.00
366.24	112.00
366.43	113.00
366.63	113.00
366.82	114.00
367.01	115.00
367.21	116.00
367.40	116.00
367.60	115.00
367.79	116.00
367.98	114.00
368.18	115.00
368.37	116.00
368.56	116.00
368.76	112.00
368.95	111.00
369.15	116.00
369.34	116.00
369.53	111.00
369.73	114.00
369.92	115.00
370.11	116.00
370.31	114.00
370.50	113.00
370.69	114.00
370.89	113.00
371.08	115.00
371.27	114.00
371.47	112.00
371.66	117.00
371.85	119.00
372.05	116.00
372.24	117.00
372.43	116.00
372.63	114.00
372.82	115.00
373.01	117.00
373.21	117.00
373.40	117.00
373.59	117.00
373.78	117.00
373.98	115.00
374.17	120.00
374.36	120.00
374.56	119.00
374.75	117.00
374.94	115.00
375.13	115.00
375.33	114.00
375.52	114.00
375.71	116.00
375.91	116.00
376.10	114.00
376.29	116.00
376.48	118.00
376.68	118.00
376.87	119.00
377.06	119.00
377.25	117.00
377.45	117.00
377.64	117.00
377.83	114.00
378.02	116.00
378.21	114.00
378.41	114.00
378.60	114.00
378.79	113.00
378.98	115.00
379.18	116.00
379.37	117.00
379.56	115.00
379.75	117.00
379.94	117.00
380.14	117.00
380.33	116.00
380.52	119.00
380.71	118.00
380.90	115.00
381.09	116.00
381.29	115.00
381.48	115.00
381.67	114.00
381.86	116.00
382.05	117.00
382.25	119.00
382.44	119.00
382.63	118.00
382.82	117.00
383.01	117.00
383.20	113.00
383.39	113.00
383.59	115.00
383.78	117.00
383.97	116.00
384.16	116.00
384.35	117.00
384.54	118.00
384.73	116.00
384.92	116.00
385.12	115.00
385.31	113.00
385.50	113.00
385.69	114.00
385.88	116.00
386.07	117.00
386.26	115.00
386.45	116.00
386.64	118.00
386.84	118.00
387.03	116.00
387.22	115.00
387.41	115.00
387.60	115.00
387.79	118.00
387.98	117.00
388.17	118.00
388.36	118.00
388.55	117.00
388.74	117.00
388.93	116.00
389.12	116.00
389.31	115.00
389.51	111.00
389.70	113.00
389.89	113.00
390.08	118.00
390.27	115.00
390.46	114.00
390.65	116.00
390.84	117.00
391.03	114.00
391.22	112.00
391.41	115.00
391.60	114.00
391.79	116.00
391.98	117.00
392.17	117.00
392.36	118.00
392.55	117.00
392.74	118.00
392.93	117.00
393.12	116.00
393.31	115.00
393.50	115.00
393.69	116.00
393.88	117.00
394.07	117.00
394.26	115.00
394.45	116.00
394.64	115.00
394.83	114.00
395.02	115.00
395.21	115.00
395.40	114.00
395.59	114.00
395.77	115.00
395.96	116.00
396.15	114.00
396.34	113.00
396.53	115.00
396.72	117.00
396.91	117.00
397.10	118.00
397.29	118.00
397.48	114.00
397.67	118.00
397.86	117.00
398.05	119.00
398.24	120.00
398.43	118.00
398.61	115.00
398.80	115.00
398.99	116.00
399.18	113.00
399.37	116.00
399.56	115.00
399.75	114.00
399.94	113.00
400.13	116.00
400.31	122.00
400.50	117.00
400.69	123.00
400.88	121.00
401.07	119.00
401.26	117.00
401.45	115.00
401.64	114.00
401.82	114.00
402.01	114.00
402.20	114.00
402.39	114.00
402.58	114.00
402.77	114.00
402.95	118.00
403.14	118.00
403.33	120.00
403.52	121.00
403.71	120.00
403.90	119.00
404.08	115.00
404.27	116.00
404.46	117.00
404.65	118.00
404.84	115.00
405.02	114.00
405.21	115.00
405.40	115.00
405.59	114.00
405.78	115.00
405.96	119.00
406.15	122.00
406.34	119.00
406.53	117.00
406.72	115.00
406.90	114.00
407.09	114.00
407.28	116.00
407.47	114.00
407.65	113.00
407.84	114.00
408.03	116.00
408.22	118.00
408.40	118.00
408.59	118.00
408.78	116.00
408.97	115.00
409.15	122.00
409.34	122.00
409.53	118.00
409.72	115.00
409.90	114.00
410.09	114.00
410.28	114.00
410.47	113.00
410.65	115.00
410.84	117.00
411.03	117.00
411.21	117.00
411.40	116.00
411.59	114.00
411.78	112.00
411.96	114.00
412.15	114.00
412.34	121.00
412.52	119.00
412.71	115.00
412.90	114.00
413.08	114.00
413.27	112.00
413.46	115.00
413.64	116.00
413.83	114.00
414.02	117.00
414.20	116.00
414.39	117.00
414.58	118.00
414.76	119.00
414.95	116.00
415.14	114.00
415.32	115.00
415.51	115.00
415.69	116.00
415.88	116.00
416.07	114.00
416.25	113.00
416.44	113.00
416.63	113.00
416.81	117.00
417.00	116.00
417.18	114.00
417.37	115.00
417.56	114.00
417.74	117.00
417.93	114.00
418.11	114.00
418.30	112.00
418.49	114.00
418.67	116.00
418.86	115.00
419.04	118.00
419.23	116.00
419.42	116.00
419.60	113.00
419.79	113.00
419.97	116.00
420.16	117.00
420.34	117.00
420.53	117.00
420.72	118.00
420.90	119.00
421.09	120.00
421.27	116.00
421.46	116.00
421.64	116.00
421.83	116.00
422.01	117.00
422.20	116.00
422.38	115.00
422.57	111.00
422.75	112.00
422.94	116.00
423.12	115.00
423.31	114.00
423.49	115.00
423.68	113.00
423.86	112.00
424.05	113.00
424.23	116.00
424.42	115.00
424.60	116.00
424.79	118.00
424.97	118.00
425.16	118.00
425.34	116.00
425.53	112.00
425.71	112.00
425.90	113.00
426.08	115.00
426.27	114.00
426.45	117.00
426.64	118.00
426.82	116.00
427.01	113.00
427.19	115.00
427.38	117.00
427.56	114.00
427.74	115.00
427.93	118.00
428.11	117.00
428.30	119.00
428.48	116.00
428.67	112.00
428.85	112.00
429.03	115.00
429.22	120.00
429.40	117.00
429.59	116.00
429.77	116.00
429.95	117.00
430.14	115.00
430.32	116.00
430.51	114.00
430.69	113.00
430.87	114.00
431.06	117.00
431.24	116.00
431.43	112.00
431.61	112.00
431.79	114.00
431.98	114.00
432.16	117.00
432.34	113.00
432.53	115.00
432.71	115.00
432.90	114.00
433.08	114.00
433.26	118.00
433.45	114.00
433.63	112.00
433.81	112.00
434.00	115.00
434.18	115.00
434.36	116.00
434.55	118.00
434.73	119.00
434.91	114.00
435.10	116.00
435.28	114.00
435.46	115.00
435.65	114.00
435.83	114.00
436.01	115.00
436.20	121.00
436.38	118.00
436.56	118.00
436.74	116.00
436.93	115.00
437.11	117.00
437.29	117.00
437.48	115.00
437.66	114.00
437.84	114.00
438.02	116.00
438.21	119.00
438.39	116.00
438.57	114.00
438.75	114.00
438.94	111.00
439.12	109.00
439.30	110.00
439.48	110.00
439.67	116.00
439.85	120.00
440.03	116.00
440.21	116.00
440.40	113.00
440.58	116.00
440.76	117.00
440.94	117.00
441.13	116.00
441.31	116.00
441.49	115.00
441.67	117.00
441.85	119.00
442.04	117.00
442.22	113.00
442.40	114.00
442.58	115.00
442.76	118.00
442.95	117.00
443.13	114.00
443.31	115.00
443.49	113.00
443.67	109.00
443.86	110.00
444.04	111.00
444.22	111.00
444.40	110.00
444.58	113.00
444.76	114.00
444.95	114.00
445.13	115.00
445.31	114.00
445.49	112.00
445.67	114.00
445.85	111.00
446.04	111.00
446.22	111.00
446.40	113.00
446.58	113.00
446.76	114.00
446.94	113.00
447.12	114.00
447.30	117.00
447.49	117.00
447.67	117.00
447.85	119.00
448.03	117.00
448.21	114.00
448.39	114.00
448.57	116.00
448.75	117.00
448.93	117.00
449.12	117.00
449.30	116.00
449.48	114.00
449.66	113.00
449.84	111.00
450.02	114.00
450.20	116.00
450.38	123.00
450.56	118.00
450.74	113.00
450.92	113.00
451.10	112.00
451.28	114.00
451.46	116.00
451.64	115.00
451.83	112.00
452.01	114.00
452.19	115.00
452.37	113.00
452.55	115.00
452.73	116.00
452.91	113.00
453.09	114.00
453.27	113.00
453.45	113.00
453.63	114.00
453.81	115.00
453.99	115.00
454.17	113.00
454.35	112.00
454.53	112.00
454.71	112.00
454.89	113.00
455.07	114.00
455.25	115.00
455.43	116.00
455.61	117.00
455.79	113.00
455.97	111.00
456.15	112.00
456.33	113.00
456.51	117.00
456.69	116.00
456.87	114.00
457.05	115.00
457.23	117.00
457.41	115.00
457.59	115.00
457.76	115.00
457.94	117.00
458.12	115.00
458.30	115.00
458.48	116.00
458.66	116.00
458.84	113.00
459.02	113.00
459.20	115.00
459.38	112.00
459.56	110.00
459.74	111.00
459.92	112.00
460.10	113.00
460.27	113.00
460.45	112.00
460.63	114.00
460.81	111.00
460.99	112.00
461.17	112.00
461.35	111.00
461.53	111.00
461.71	112.00
461.88	113.00
462.06	114.00
462.24	112.00
462.42	113.00
462.60	115.00
462.78	112.00
462.96	115.00
463.14	116.00
463.31	117.00
463.49	113.00
463.67	114.00
463.85	114.00
464.03	112.00
464.21	110.00
464.38	112.00
464.56	112.00
464.74	115.00
464.92	114.00
465.10	117.00
465.28	118.00
465.45	119.00
465.63	115.00
465.81	113.00
465.99	113.00
466.17	112.00
466.35	112.00
466.52	113.00
466.70	115.00
466.88	119.00
467.06	117.00
467.24	116.00
467.41	117.00
467.59	116.00
467.77	118.00
467.95	118.00
468.12	117.00
468.30	116.00
468.48	115.00
468.66	117.00
468.84	115.00
469.01	112.00
469.19	113.00
469.37	115.00
469.55	117.00
469.72	115.00
469.90	115.00
470.08	116.00
470.26	112.00
470.43	115.00
470.61	116.00
470.79	115.00
470.96	114.00
471.14	111.00
471.32	113.00
471.50	115.00
471.67	114.00
471.85	113.00
472.03	114.00
472.20	113.00
472.38	113.00
472.56	112.00
472.74	113.00
472.91	114.00
473.09	115.00
473.27	116.00
473.44	116.00
473.62	117.00
473.80	114.00
473.97	115.00
474.15	112.00
474.33	112.00
474.50	112.00
474.68	112.00
474.86	112.00
475.03	124.00
475.21	118.00
475.39	117.00
475.56	114.00
475.74	110.00
475.92	112.00
476.09	112.00
476.27	113.00
476.45	113.00
476.62	115.00
476.80	113.00
476.97	115.00
477.15	113.00
477.33	114.00
477.50	113.00
477.68	113.00
477.86	112.00
478.03	113.00
478.21	114.00
478.38	115.00
478.56	115.00
478.74	117.00
478.91	115.00
479.09	112.00
479.26	111.00
479.44	111.00
479.62	115.00
479.79	116.00
479.97	115.00
480.14	113.00
480.32	112.00
480.49	113.00
480.67	113.00
480.85	112.00
481.02	112.00
481.20	114.00
481.37	115.00
481.55	113.00
481.72	115.00
481.90	117.00
482.07	116.00
482.25	114.00
482.42	112.00
482.60	112.00
482.78	112.00
482.95	112.00
483.13	112.00
483.30	114.00
483.48	116.00
483.65	115.00
483.83	117.00
484.00	114.00
484.18	116.00
484.35	116.00
484.53	120.00
484.70	118.00
484.88	114.00
485.05	115.00
485.23	118.00
485.40	114.00
485.58	115.00
485.75	115.00
485.93	114.00
486.10	111.00
486.27	115.00
486.45	116.00
486.62	116.00
486.80	115.00
486.97	115.00
487.15	115.00
487.32	112.00
487.50	115.00
487.67	116.00
487.85	115.00
488.02	116.00
488.19	117.00
488.37	113.00
488.54	115.00
488.72	117.00
488.89	117.00
489.07	118.00
489.24	113.00
489.41	115.00
489.59	116.00
489.76	115.00
489.94	116.00
490.11	115.00
490.28	117.00
490.46	118.00
490.63	118.00
490.81	116.00
490.98	116.00
491.15	116.00
491.33	114.00
491.50	115.00
491.68	115.00
491.85	116.00
492.02	114.00
492.20	113.00
492.37	113.00
492.54	113.00
492.72	115.00
492.89	115.00
493.06	113.00
493.24	115.00
493.41	115.00
493.58	117.00
493.76	114.00
493.93	111.00
494.10	112.00
494.28	113.00
494.45	112.00
494.62	114.00
494.80	114.00
494.97	117.00
495.14	117.00
495.32	114.00
495.49	117.00
495.66	114.00
495.84	113.00
496.01	116.00
496.18	114.00
496.36	114.00
496.53	114.00
496.70	115.00
496.87	120.00
497.05	119.00
497.22	117.00
497.39	114.00
497.57	113.00
497.74	111.00
497.91	114.00
498.08	113.00
498.26	110.00
498.43	111.00
498.60	113.00
498.77	110.00
498.95	111.00
499.12	112.00
499.29	116.00
499.46	114.00
499.64	113.00
499.81	114.00
499.98	115.00
500.15	116.00
500.33	115.00
500.50	114.00
500.67	114.00
500.84	115.00
501.01	112.00
501.19	110.00
501.36	110.00
501.53	113.00
501.70	117.00
501.87	116.00
502.05	114.00
502.22	113.00
502.39	114.00
502.56	115.00
502.73	114.00
502.91	114.00
503.08	117.00
503.25	116.00
503.42	115.00
503.59	114.00
503.77	115.00
503.94	113.00
504.11	114.00
504.28	115.00
504.45	115.00
504.62	113.00
504.79	115.00
504.97	114.00
505.14	113.00
505.31	113.00
505.48	114.00
505.65	111.00
505.82	110.00
505.99	112.00
506.17	116.00
506.34	113.00
506.51	111.00
506.68	111.00
506.85	114.00
507.02	114.00
507.19	112.00
507.36	114.00
507.53	113.00
507.71	116.00
507.88	115.00
508.05	114.00
508.22	117.00
508.39	118.00
508.56	114.00
508.73	115.00
508.90	112.00
509.07	113.00
509.24	112.00
509.41	113.00
509.58	114.00
509.76	114.00
509.93	113.00
510.10	112.00
510.27	112.00
510.44	115.00
510.61	116.00
510.78	117.00
510.95	112.00
511.12	111.00
511.29	113.00
511.46	112.00
511.63	111.00
511.80	112.00
511.97	114.00
512.14	114.00
512.31	115.00
512.48	115.00
512.65	111.00
512.82	113.00
512.99	114.00
513.16	114.00
513.33	115.00
513.50	114.00
513.67	114.00
513.84	115.00
514.01	114.00
514.18	112.00
514.35	113.00
514.52	114.00
514.69	114.00
514.86	115.00
515.03	112.00
515.20	112.00
515.37	114.00
515.54	114.00
515.71	112.00
515.88	111.00
516.05	115.00
516.22	114.00
516.39	114.00
516.56	114.00
516.73	112.00
516.90	114.00
517.06	115.00
517.23	114.00
517.40	113.00
517.57	114.00
517.74	114.00
517.91	113.00
518.08	115.00
518.25	112.00
518.42	113.00
518.59	113.00
518.76	112.00
518.93	113.00
519.09	116.00
519.26	115.00
519.43	115.00
519.60	116.00
519.77	116.00
519.94	115.00
520.11	113.00
520.28	115.00
520.45	119.00
520.61	116.00
520.78	113.00
520.95	112.00
521.12	115.00
521.29	113.00
521.46	115.00
521.63	116.00
521.79	114.00
521.96	111.00
522.13	111.00
522.30	111.00
522.47	112.00
522.64	120.00
522.80	117.00
522.97	115.00
523.14	117.00
523.31	117.00
523.48	112.00
523.65	114.00
523.81	114.00
523.98	114.00
524.15	112.00
524.32	112.00
524.49	116.00
524.65	114.00
524.82	114.00
524.99	116.00
525.16	117.00
525.33	118.00
525.49	114.00
525.66	114.00
525.83	114.00
526.00	114.00
526.17	115.00
526.33	115.00
526.50	114.00
526.67	116.00
526.84	114.00
527.00	110.00
527.17	110.00
527.34	113.00
527.51	113.00
527.67	111.00
527.84	113.00
528.01	114.00
528.18	113.00
528.34	113.00
528.51	111.00
528.68	110.00
528.85	112.00
529.01	112.00
529.18	117.00
529.35	111.00
529.51	110.00
529.68	112.00
529.85	112.00
530.02	114.00
530.18	112.00
530.35	114.00
530.52	113.00
530.68	112.00
530.85	115.00
531.02	114.00
531.18	112.00
531.35	111.00
531.52	113.00
531.68	111.00
531.85	114.00
532.02	114.00
532.18	113.00
532.35	114.00
532.52	113.00
532.68	115.00
532.85	114.00
533.02	114.00
533.18	113.00
533.35	110.00
533.52	110.00
533.68	111.00
533.85	113.00
534.02	113.00
534.18	115.00
534.35	113.00
534.51	112.00
534.68	115.00
534.85	114.00
535.01	112.00
535.18	113.00
535.35	115.00
535.51	114.00
535.68	113.00
535.84	115.00
536.01	115.00
536.18	113.00
536.34	112.00
536.51	112.00
536.67	112.00
536.84	112.00
537.00	108.00
537.17	110.00
537.34	110.00
537.50	114.00
537.67	112.00
537.83	111.00
538.00	110.00
538.16	110.00
538.33	112.00
538.50	114.00
538.66	117.00
538.83	115.00
538.99	115.00
539.16	114.00
539.32	114.00
539.49	114.00
539.65	113.00
539.82	115.00
539.98	113.00
540.15	116.00
540.31	116.00
540.48	117.00
540.65	117.00
540.81	114.00
540.98	117.00
541.14	115.00
541.31	113.00
541.47	115.00
541.64	113.00
541.80	112.00
541.97	112.00
542.13	113.00
542.29	114.00
542.46	115.00
542.62	114.00
542.79	117.00
542.95	114.00
543.12	111.00
543.28	112.00
543.45	115.00
543.61	116.00
543.78	114.00
543.94	111.00
544.11	111.00
544.27	112.00
544.44	114.00
544.60	113.00
544.76	112.00
544.93	114.00
545.09	114.00
545.26	112.00
545.42	113.00
545.59	115.00
545.75	115.00
545.91	113.00
546.08	112.00
546.24	112.00
546.41	111.00
546.57	113.00
546.73	114.00
546.90	113.00
547.06	113.00
547.23	113.00
547.39	112.00
547.55	113.00
547.72	112.00
547.88	111.00
548.05	115.00
548.21	113.00
548.37	115.00
548.54	118.00
548.70	117.00
548.86	117.00
549.03	114.00
549.19	114.00
549.36	114.00
549.52	111.00
549.68	114.00
549.85	112.00
550.01	113.00
550.17	113.00
550.34	112.00
550.50	116.00
550.66	115.00
550.83	117.00
550.99	115.00
551.15	115.00
551.32	114.00
551.48	113.00
551.64	117.00
551.81	115.00
551.97	114.00
552.13	113.00
552.29	115.00
552.46	115.00
552.62	113.00
552.78	114.00
552.95	116.00
553.11	112.00
553.27	111.00
553.43	112.00
553.60	112.00
553.76	116.00
553.92	113.00
554.09	113.00
554.25	115.00
554.41	116.00
554.57	118.00
554.74	117.00
554.90	113.00
555.06	115.00
555.22	116.00
555.39	115.00
555.55	113.00
555.71	113.00
555.87	114.00
556.04	112.00
556.20	112.00
556.36	110.00
556.52	110.00
556.69	112.00
556.85	111.00
557.01	113.00
557.17	109.00
557.33	111.00
557.50	113.00
557.66	112.00
557.82	112.00
557.98	113.00
558.14	113.00
558.31	114.00
558.47	115.00
558.63	115.00
558.79	115.00
558.95	115.00
559.12	114.00
559.28	113.00
559.44	115.00
559.60	114.00
559.76	116.00
559.92	116.00
560.09	117.00
560.25	114.00
560.41	113.00
560.57	113.00
560.73	116.00
560.89	115.00
561.05	113.00
561.22	112.00
561.38	114.00
561.54	117.00
561.70	115.00
561.86	112.00
562.02	111.00
562.18	112.00
562.34	113.00
562.51	113.00
562.67	115.00
562.83	114.00
562.99	114.00
563.15	117.00
563.31	115.00
563.47	114.00
563.63	111.00
563.79	113.00
563.95	114.00
564.12	112.00
564.28	115.00
564.44	116.00
564.60	116.00
564.76	116.00
564.92	113.00
565.08	113.00
565.24	111.00
565.40	112.00
565.56	113.00
565.72	114.00
565.88	113.00
566.04	111.00
566.20	113.00
566.36	112.00
566.52	114.00
566.69	114.00
566.85	116.00
567.01	113.00
567.17	114.00
567.33	116.00
567.49	111.00
567.65	111.00
567.81	112.00
567.97	112.00
568.13	113.00
568.29	115.00
568.45	116.00
568.61	116.00
568.77	112.00
568.93	114.00
569.09	114.00
569.25	114.00
569.41	114.00
569.57	112.00
569.73	113.00
569.89	112.00
570.05	114.00
570.21	115.00
570.37	114.00
570.53	111.00
570.68	114.00
570.84	110.00
571.00	110.00
571.16	111.00
571.32	112.00
571.48	113.00
571.64	113.00
571.80	110.00
571.96	112.00
572.12	114.00
572.28	114.00
572.44	112.00
572.60	113.00
572.76	113.00
572.92	113.00
573.08	116.00
573.23	115.00
573.39	112.00
573.55	115.00
573.71	114.00
573.87	111.00
574.03	110.00
574.19	112.00
574.35	114.00
574.51	113.00
574.67	113.00
574.82	113.00
574.98	112.00
575.14	114.00
575.30	113.00
575.46	113.00
575.62	114.00
575.78	113.00
575.94	114.00
576.09	115.00
576.25	116.00
576.41	113.00
576.57	112.00
576.73	113.00
576.89	115.00
577.05	116.00
577.20	116.00
577.36	113.00
577.52	114.00
577.68	112.00
577.84	113.00
578.00	115.00
578.15	114.00
578.31	117.00
578.47	117.00
578.63	116.00
578.79	115.00
578.94	110.00
579.10	112.00
579.26	113.00
579.42	114.00
579.58	112.00
579.73	113.00
579.89	115.00
580.05	115.00
580.21	116.00
580.37	114.00
580.52	113.00
580.68	111.00
580.84	111.00
581.00	114.00
581.15	117.00
581.31	115.00
581.47	114.00
581.63	114.00
581.78	117.00
581.94	115.00
582.10	116.00
582.26	114.00
582.41	114.00
582.57	113.00
582.73	114.00
582.89	113.00
583.04	114.00
583.20	114.00
583.36	114.00
583.52	111.00
583.67	111.00
583.83	109.00
583.99	111.00
584.14	113.00
584.30	114.00
584.46	111.00
584.62	114.00
584.77	117.00
584.93	115.00
585.09	118.00
585.24	116.00
585.40	116.00
585.56	116.00
585.71	112.00
585.87	111.00
586.03	111.00
586.18	112.00
586.34	115.00
586.50	114.00
586.65	112.00
586.81	111.00
586.97	112.00
587.12	110.00
587.28	112.00
587.44	114.00
587.59	114.00
587.75	114.00
587.91	114.00
588.06	114.00
588.22	113.00
588.37	114.00
588.53	112.00
588.69	116.00
588.84	114.00
589.00	112.00
589.16	112.00
589.31	115.00
589.47	113.00
589.62	113.00
589.78	116.00
589.94	115.00
590.09	114.00
590.25	114.00
590.40	113.00
590.56	113.00
590.72	114.00
590.87	119.00
591.03	119.00
591.18	118.00
591.34	117.00
591.49	116.00
591.65	117.00
591.81	116.00
591.96	113.00
592.12	113.00
592.27	112.00
592.43	113.00
592.58	112.00
592.74	113.00
592.89	115.00
593.05	112.00
593.21	108.00
593.36	114.00
593.52	114.00
593.67	112.00
593.83	112.00
593.98	113.00
594.14	113.00
594.29	110.00
594.45	114.00
594.60	115.00
594.76	115.00
594.91	114.00
595.07	114.00
595.22	112.00
595.38	110.00
595.53	110.00
595.69	113.00
595.84	115.00
596.00	114.00
596.15	116.00
596.31	114.00
596.46	114.00
596.62	113.00
596.77	114.00
596.93	113.00
597.08	113.00
597.23	113.00
597.39	114.00
597.54	112.00
597.70	111.00
597.85	111.00
598.01	118.00
598.16	116.00
598.32	111.00
598.47	111.00
598.62	113.00
598.78	113.00
598.93	114.00
599.09	113.00
599.24	111.00
599.40	115.00
599.55	115.00
599.70	115.00
599.86	115.00
600.01	116.00
600.17	115.00
600.32	112.00
600.47	112.00
600.63	112.00
600.78	115.00
600.94	115.00
601.09	114.00
601.24	112.00
601.40	112.00
601.55	114.00
601.70	116.00
601.86	113.00
602.01	113.00
602.17	113.00
602.32	112.00
602.47	115.00
602.63	114.00
602.78	115.00
602.93	113.00
603.09	111.00
603.24	112.00
603.39	112.00
603.55	114.00
603.70	113.00
603.85	121.00
604.01	117.00
604.16	113.00
604.31	115.00
604.47	112.00
604.62	112.00
604.77	113.00
604.93	117.00
605.08	119.00
605.23	115.00
605.39	110.00
605.54	112.00
605.69	116.00
605.84	120.00
606.00	120.00
606.15	115.00
606.30	112.00
606.46	111.00
606.61	115.00
606.76	114.00
606.91	116.00
607.07	114.00
607.22	112.00
607.37	109.00
607.52	108.00
607.68	113.00
607.83	114.00
607.98	113.00
608.13	115.00
608.29	118.00
608.44	116.00
608.59	113.00
608.74	112.00
608.90	112.00
609.05	110.00
609.20	112.00
609.35	115.00
609.51	116.00
609.66	117.00
609.81	117.00
609.96	119.00
610.11	113.00
610.27	111.00
610.42	110.00
610.57	113.00
610.72	113.00
610.87	112.00
611.03	114.00
611.18	113.00
611.33	113.00
611.48	114.00
611.63	112.00
611.78	111.00
611.94	111.00
612.09	114.00
612.24	113.00
612.39	113.00
612.54	116.00
612.69	114.00
612.85	113.00
613.00	113.00
613.15	114.00
613.30	114.00
613.45	113.00
613.60	113.00
613.75	114.00
613.91	113.00
614.06	115.00
614.21	114.00
614.36	112.00
614.51	112.00
614.66	110.00
614.81	112.00
614.96	116.00
615.12	115.00
615.27	113.00
615.42	114.00
615.57	111.00
615.72	111.00
615.87	114.00
616.02	117.00
616.17	117.00
616.32	115.00
616.47	114.00
616.63	112.00
616.78	112.00
616.93	113.00
617.08	115.00
617.23	116.00
617.38	114.00
617.53	110.00
617.68	111.00
617.83	116.00
617.98	114.00
618.13	115.00
618.28	115.00
618.43	118.00
618.58	116.00
618.73	118.00
618.88	114.00
619.03	113.00
619.18	111.00
619.33	114.00
619.48	115.00
619.63	115.00
619.79	114.00
619.94	113.00
620.09	111.00
620.24	113.00
620.39	113.00
620.54	114.00
620.69	121.00
620.84	118.00
620.99	115.00
621.14	116.00
621.29	115.00
621.44	115.00
621.58	114.00
621.73	111.00
621.88	114.00
622.03	114.00
622.18	112.00
622.33	111.00
622.48	114.00
622.63	114.00
622.78	116.00
622.93	113.00
623.08	113.00
623.23	111.00
623.38	114.00
623.53	111.00
623.68	112.00
623.83	114.00
623.98	113.00
624.13	114.00
624.28	112.00
624.43	112.00
624.58	113.00
624.72	112.00
624.87	112.00
625.02	112.00
625.17	114.00
625.32	115.00
625.47	114.00
625.62	111.00
625.77	111.00
625.92	113.00
626.07	113.00
626.21	117.00
626.36	114.00
626.51	110.00
626.66	111.00
626.81	114.00
626.96	114.00
627.11	113.00
627.26	114.00
627.40	117.00
627.55	116.00
627.70	115.00
627.85	114.00
628.00	115.00
628.15	112.00
628.30	111.00
628.44	113.00
628.59	115.00
628.74	116.00
628.89	116.00
629.04	115.00
629.19	114.00
629.33	114.00
629.48	110.00
629.63	110.00
629.78	111.00
629.93	111.00
630.08	110.00
630.22	111.00
630.37	114.00
630.52	116.00
630.67	115.00
630.82	113.00
630.96	113.00
631.11	112.00
631.26	112.00
631.41	112.00
631.55	116.00
631.70	115.00
631.85	112.00
632.00	111.00
632.15	112.00
632.29	113.00
632.44	114.00
632.59	115.00
632.74	114.00
632.88	112.00
633.03	111.00
633.18	109.00
633.33	109.00
633.47	110.00
633.62	111.00
633.77	112.00
633.92	114.00
634.06	114.00
634.21	114.00
634.36	116.00
634.51	116.00
634.65	113.00
634.80	113.00
634.95	112.00
635.09	112.00
635.24	112.00
635.39	114.00
635.53	116.00
635.68	115.00
635.83	113.00
635.98	114.00
636.12	116.00
636.27	117.00
636.42	115.00
636.56	112.00
636.71	114.00
636.86	115.00
637.00	115.00
637.15	114.00
637.30	112.00
637.44	115.00
637.59	115.00
637.74	111.00
637.88	113.00
638.03	118.00
638.18	118.00
638.32	116.00
638.47	116.00
638.62	114.00
638.76	114.00
638.91	115.00
639.05	117.00
639.20	113.00
639.35	116.00
639.49	116.00
639.64	117.00
639.79	114.00
639.93	113.00
640.08	114.00
640.22	111.00
640.37	111.00
640.52	113.00
640.66	116.00
640.81	116.00
640.95	116.00
641.10	112.00
641.25	112.00
641.39	115.00
641.54	116.00
641.68	111.00
641.83	111.00
641.97	110.00
642.12	113.00
642.27	114.00
642.41	115.00
642.56	116.00
642.70	121.00
642.85	119.00
642.99	114.00
643.14	118.00
643.28	115.00
643.43	115.00
643.57	114.00
643.72	114.00
643.87	115.00
644.01	114.00
644.16	113.00
644.30	112.00
644.45	112.00
644.59	111.00
644.74	114.00
644.88	114.00
645.03	111.00
645.17	111.00
645.32	116.00
645.46	114.00
645.61	115.00
645.75	116.00
645.90	116.00
646.04	113.00
646.19	111.00
646.33	113.00
646.48	113.00
646.62	113.00
646.77	112.00
646.91	115.00
647.05	116.00
647.20	120.00
647.34	115.00
647.49	113.00
647.63	111.00
647.78	110.00
647.92	112.00
648.07	110.00
648.21	112.00
648.36	112.00
648.50	113.00
648.64	115.00
648.79	114.00
648.93	112.00
649.08	115.00
649.22	116.00
649.37	119.00
649.51	115.00
649.65	115.00
649.80	116.00
649.94	114.00
650.09	113.00
650.23	111.00
650.37	113.00
650.52	112.00
650.66	112.00
650.81	112.00
650.95	112.00
651.09	110.00
651.24	114.00
651.38	116.00
651.52	115.00
651.67	113.00
651.81	115.00
651.96	113.00
652.10	113.00
652.24	115.00
652.39	114.00
652.53	111.00
652.67	114.00
652.82	120.00
652.96	115.00
653.10	115.00
653.25	113.00
653.39	114.00
653.53	114.00
653.68	113.00
653.82	114.00
653.96	117.00
654.11	115.00
654.25	113.00
654.39	113.00
654.54	116.00
654.68	113.00
654.82	112.00
654.97	116.00
655.11	119.00
655.25	118.00
655.39	118.00
655.54	114.00
655.68	111.00
655.82	112.00
655.97	113.00
656.11	113.00
656.25	112.00
656.39	111.00
656.54	112.00
656.68	113.00
656.82	112.00
656.96	114.00
657.11	114.00
657.25	116.00
657.39	115.00
657.53	116.00
657.68	115.00
657.82	114.00
657.96	112.00
658.10	111.00
658.25	112.00
658.39	113.00
658.53	112.00
658.67	111.00
658.82	111.00
658.96	111.00
659.10	113.00
659.24	114.00
659.38	113.00
659.53	114.00
659.67	112.00
659.81	113.00
659.95	111.00
660.09	112.00
660.24	111.00
660.38	115.00
660.52	115.00
660.66	110.00
660.80	114.00
660.95	116.00
661.09	115.00
661.23	113.00
661.37	114.00
661.51	118.00
661.65	119.00
661.80	115.00
661.94	114.00
662.08	110.00
662.22	113.00
662.36	113.00
662.50	112.00
662.64	112.00
662.79	112.00
662.93	111.00
663.07	112.00
663.21	113.00
663.35	115.00
663.49	114.00
663.63	115.00
663.77	114.00
663.92	112.00
664.06	112.00
664.20	112.00
664.34	111.00
664.48	113.00
664.62	111.00
664.76	112.00
664.90	112.00
665.04	112.00
665.18	112.00
665.33	113.00
665.47	111.00
665.61	111.00
665.75	110.00
665.89	112.00
666.03	112.00
666.17	114.00
666.31	112.00
666.45	114.00
666.59	115.00
666.73	113.00
666.87	111.00
667.01	112.00
667.15	113.00
667.29	115.00
667.43	112.00
667.57	113.00
667.71	112.00
667.86	113.00
668.00	112.00
668.14	118.00
668.28	118.00
668.42	117.00
668.56	116.00
668.70	113.00
668.84	112.00
668.98	113.00
669.12	113.00
669.26	112.00
669.40	113.00
669.54	115.00
669.68	115.00
669.82	115.00
669.96	114.00
670.10	114.00
670.24	113.00
670.38	114.00
670.52	112.00
670.66	114.00
670.79	113.00
670.93	111.00
671.07	114.00
671.21	114.00
671.35	113.00
671.49	111.00
671.63	111.00
671.77	114.00
671.91	118.00
672.05	115.00
672.19	112.00
672.33	111.00
672.47	112.00
672.61	110.00
672.75	110.00
672.89	115.00
673.03	116.00
673.16	117.00
673.30	116.00
673.44	112.00
673.58	112.00
673.72	114.00
673.86	116.00
674.00	114.00
674.14	115.00
674.28	113.00
674.42	111.00
674.55	111.00
674.69	111.00
674.83	111.00
674.97	112.00
675.11	112.00
675.25	114.00
675.39	114.00
675.53	116.00
675.66	115.00
675.80	115.00
675.94	114.00
676.08	116.00
676.22	118.00
676.36	117.00
676.50	116.00
676.63	116.00
676.77	115.00
676.91	115.00
677.05	112.00
677.19	114.00
677.33	113.00
677.46	113.00
677.60	113.00
677.74	112.00
677.88	113.00
678.02	113.00
678.16	115.00
678.29	113.00
678.43	115.00
678.57	115.00
678.71	113.00
678.85	111.00
678.98	111.00
679.12	112.00
679.26	112.00
679.40	113.00
679.53	114.00
679.67	113.00
679.81	116.00
679.95	113.00
680.09	108.00
680.22	110.00
680.36	111.00
680.50	112.00
680.64	112.00
680.77	114.00
680.91	111.00
681.05	113.00
681.19	112.00
681.32	113.00
681.46	114.00
681.60	116.00
681.74	117.00
681.87	116.00
682.01	116.00
682.15	112.00
682.28	110.00
682.42	109.00
682.56	111.00
682.70	109.00
682.83	110.00
682.97	111.00
683.11	111.00
683.24	112.00
683.38	113.00
683.52	114.00
683.65	115.00
683.79	114.00
683.93	113.00
684.07	114.00
684.20	116.00
684.34	113.00
684.48	111.00
684.61	111.00
684.75	113.00
684.89	113.00
685.02	117.00
685.16	118.00
685.30	116.00
685.43	114.00
685.57	116.00
685.70	114.00
685.84	115.00
685.98	115.00
>>>>>End Processed Spectral Data<<<<<
