SpectraSuite Data File
++++++++++++++++++++++++++++++++++++
Date: Wed Oct 01 14:34:34 PDT 2014
User: ugastro
Dark Spectrum Present: No
Reference Spectrum Present: No
Number of Sampled Component Spectra: 1
Spectrometers: USB2G5981
Integration Time (usec): 1000000 (USB2G5981)
Spectra Averaged: 1 (USB2G5981)
Boxcar Smoothing: 0 (USB2G5981)
Correct for Electrical Dark: No (USB2G5981)
Strobe/Lamp Enabled: No (USB2G5981)
Correct for Detector Non-linearity: No (USB2G5981)
Correct for Stray Light: No (USB2G5981)
Number of Pixels in Processed Spectrum: 2048
>>>>>Begin Processed Spectral Data<<<<<
0.00	0.00
1.00	121.00
2.00	120.00
3.00	120.00
4.00	124.00
5.00	150.00
6.00	135.00
7.00	132.00
8.00	154.00
9.00	137.00
10.00	133.00
11.00	136.00
12.00	136.00
13.00	136.00
14.00	133.00
15.00	132.00
16.00	132.00
17.00	133.00
18.00	136.00
19.00	137.00
20.00	135.00
21.00	149.00
22.00	139.00
23.00	133.00
24.00	133.00
25.00	134.00
26.00	162.00
27.00	136.00
28.00	137.00
29.00	138.00
30.00	138.00
31.00	146.00
32.00	141.00
33.00	137.00
34.00	140.00
35.00	141.00
36.00	138.00
37.00	148.00
38.00	140.00
39.00	140.00
40.00	133.00
41.00	131.00
42.00	137.00
43.00	138.00
44.00	133.00
45.00	136.00
46.00	136.00
47.00	136.00
48.00	139.00
49.00	130.00
50.00	133.00
51.00	131.00
52.00	131.00
53.00	134.00
54.00	141.00
55.00	135.00
56.00	132.00
57.00	135.00
58.00	132.00
59.00	136.00
60.00	132.00
61.00	136.00
62.00	135.00
63.00	133.00
64.00	137.00
65.00	134.00
66.00	136.00
67.00	136.00
68.00	157.00
69.00	140.00
70.00	136.00
71.00	136.00
72.00	130.00
73.00	132.00
74.00	137.00
75.00	139.00
76.00	135.00
77.00	135.00
78.00	137.00
79.00	135.00
80.00	159.00
81.00	138.00
82.00	133.00
83.00	133.00
84.00	136.00
85.00	139.00
86.00	136.00
87.00	134.00
88.00	138.00
89.00	133.00
90.00	173.00
91.00	167.00
92.00	143.00
93.00	139.00
94.00	148.00
95.00	135.00
96.00	135.00
97.00	143.00
98.00	137.00
99.00	134.00
100.00	140.00
101.00	140.00
102.00	136.00
103.00	132.00
104.00	138.00
105.00	136.00
106.00	136.00
107.00	133.00
108.00	142.00
109.00	140.00
110.00	143.00
111.00	137.00
112.00	138.00
113.00	135.00
114.00	139.00
115.00	138.00
116.00	140.00
117.00	138.00
118.00	135.00
119.00	138.00
120.00	137.00
121.00	134.00
122.00	135.00
123.00	133.00
124.00	133.00
125.00	140.00
126.00	141.00
127.00	163.00
128.00	147.00
129.00	135.00
130.00	142.00
131.00	136.00
132.00	143.00
133.00	140.00
134.00	132.00
135.00	138.00
136.00	136.00
137.00	141.00
138.00	141.00
139.00	136.00
140.00	138.00
141.00	142.00
142.00	137.00
143.00	136.00
144.00	141.00
145.00	136.00
146.00	139.00
147.00	135.00
148.00	134.00
149.00	135.00
150.00	134.00
151.00	133.00
152.00	142.00
153.00	178.00
154.00	147.00
155.00	136.00
156.00	135.00
157.00	137.00
158.00	143.00
159.00	139.00
160.00	139.00
161.00	143.00
162.00	144.00
163.00	136.00
164.00	134.00
165.00	135.00
166.00	140.00
167.00	136.00
168.00	142.00
169.00	139.00
170.00	146.00
171.00	141.00
172.00	137.00
173.00	134.00
174.00	137.00
175.00	141.00
176.00	138.00
177.00	144.00
178.00	152.00
179.00	141.00
180.00	145.00
181.00	144.00
182.00	137.00
183.00	139.00
184.00	143.00
185.00	146.00
186.00	153.00
187.00	143.00
188.00	145.00
189.00	142.00
190.00	138.00
191.00	136.00
192.00	138.00
193.00	158.00
194.00	153.00
195.00	192.00
196.00	144.00
197.00	141.00
198.00	136.00
199.00	136.00
200.00	135.00
201.00	136.00
202.00	136.00
203.00	141.00
204.00	137.00
205.00	139.00
206.00	141.00
207.00	137.00
208.00	145.00
209.00	142.00
210.00	140.00
211.00	139.00
212.00	137.00
213.00	139.00
214.00	140.00
215.00	143.00
216.00	139.00
217.00	135.00
218.00	146.00
219.00	138.00
220.00	135.00
221.00	140.00
222.00	138.00
223.00	140.00
224.00	153.00
225.00	151.00
226.00	169.00
227.00	146.00
228.00	163.00
229.00	140.00
230.00	141.00
231.00	145.00
232.00	140.00
233.00	142.00
234.00	142.00
235.00	137.00
236.00	139.00
237.00	148.00
238.00	152.00
239.00	145.00
240.00	163.00
241.00	152.00
242.00	147.00
243.00	157.00
244.00	150.00
245.00	145.00
246.00	162.00
247.00	142.00
248.00	140.00
249.00	139.00
250.00	138.00
251.00	143.00
252.00	141.00
253.00	136.00
254.00	143.00
255.00	141.00
256.00	146.00
257.00	144.00
258.00	139.00
259.00	147.00
260.00	141.00
261.00	136.00
262.00	137.00
263.00	142.00
264.00	138.00
265.00	139.00
266.00	137.00
267.00	136.00
268.00	137.00
269.00	141.00
270.00	136.00
271.00	140.00
272.00	136.00
273.00	142.00
274.00	142.00
275.00	138.00
276.00	142.00
277.00	140.00
278.00	139.00
279.00	142.00
280.00	145.00
281.00	145.00
282.00	139.00
283.00	134.00
284.00	135.00
285.00	136.00
286.00	137.00
287.00	146.00
288.00	143.00
289.00	156.00
290.00	178.00
291.00	143.00
292.00	219.00
293.00	144.00
294.00	136.00
295.00	141.00
296.00	142.00
297.00	142.00
298.00	147.00
299.00	137.00
300.00	136.00
301.00	131.00
302.00	135.00
303.00	137.00
304.00	174.00
305.00	149.00
306.00	145.00
307.00	142.00
308.00	160.00
309.00	141.00
310.00	140.00
311.00	143.00
312.00	140.00
313.00	144.00
314.00	149.00
315.00	147.00
316.00	139.00
317.00	136.00
318.00	141.00
319.00	139.00
320.00	139.00
321.00	142.00
322.00	145.00
323.00	135.00
324.00	136.00
325.00	144.00
326.00	138.00
327.00	135.00
328.00	140.00
329.00	136.00
330.00	147.00
331.00	141.00
332.00	134.00
333.00	135.00
334.00	143.00
335.00	140.00
336.00	138.00
337.00	159.00
338.00	140.00
339.00	136.00
340.00	142.00
341.00	138.00
342.00	136.00
343.00	137.00
344.00	134.00
345.00	147.00
346.00	142.00
347.00	142.00
348.00	137.00
349.00	140.00
350.00	134.00
351.00	139.00
352.00	144.00
353.00	142.00
354.00	142.00
355.00	137.00
356.00	166.00
357.00	152.00
358.00	142.00
359.00	136.00
360.00	135.00
361.00	136.00
362.00	142.00
363.00	136.00
364.00	138.00
365.00	139.00
366.00	145.00
367.00	147.00
368.00	140.00
369.00	140.00
370.00	138.00
371.00	143.00
372.00	137.00
373.00	151.00
374.00	139.00
375.00	134.00
376.00	136.00
377.00	135.00
378.00	135.00
379.00	142.00
380.00	143.00
381.00	138.00
382.00	135.00
383.00	139.00
384.00	137.00
385.00	136.00
386.00	141.00
387.00	138.00
388.00	135.00
389.00	133.00
390.00	156.00
391.00	145.00
392.00	141.00
393.00	145.00
394.00	145.00
395.00	142.00
396.00	144.00
397.00	145.00
398.00	142.00
399.00	140.00
400.00	145.00
401.00	141.00
402.00	138.00
403.00	138.00
404.00	142.00
405.00	136.00
406.00	138.00
407.00	137.00
408.00	142.00
409.00	137.00
410.00	136.00
411.00	139.00
412.00	136.00
413.00	138.00
414.00	139.00
415.00	142.00
416.00	140.00
417.00	153.00
418.00	137.00
419.00	137.00
420.00	140.00
421.00	144.00
422.00	146.00
423.00	137.00
424.00	140.00
425.00	141.00
426.00	141.00
427.00	135.00
428.00	147.00
429.00	142.00
430.00	160.00
431.00	147.00
432.00	141.00
433.00	148.00
434.00	152.00
435.00	194.00
436.00	148.00
437.00	149.00
438.00	141.00
439.00	149.00
440.00	142.00
441.00	147.00
442.00	137.00
443.00	135.00
444.00	141.00
445.00	187.00
446.00	147.00
447.00	140.00
448.00	135.00
449.00	136.00
450.00	140.00
451.00	140.00
452.00	137.00
453.00	132.00
454.00	139.00
455.00	160.00
456.00	139.00
457.00	141.00
458.00	139.00
459.00	141.00
460.00	140.00
461.00	142.00
462.00	138.00
463.00	139.00
464.00	140.00
465.00	134.00
466.00	134.00
467.00	145.00
468.00	143.00
469.00	138.00
470.00	155.00
471.00	172.00
472.00	143.00
473.00	143.00
474.00	144.00
475.00	140.00
476.00	139.00
477.00	142.00
478.00	144.00
479.00	162.00
480.00	155.00
481.00	168.00
482.00	184.00
483.00	195.00
484.00	188.00
485.00	166.00
486.00	151.00
487.00	142.00
488.00	144.00
489.00	160.00
490.00	142.00
491.00	138.00
492.00	145.00
493.00	140.00
494.00	142.00
495.00	139.00
496.00	141.00
497.00	167.00
498.00	148.00
499.00	140.00
500.00	137.00
501.00	139.00
502.00	140.00
503.00	165.00
504.00	144.00
505.00	138.00
506.00	138.00
507.00	150.00
508.00	144.00
509.00	138.00
510.00	138.00
511.00	133.00
512.00	138.00
513.00	144.00
514.00	167.00
515.00	143.00
516.00	139.00
517.00	138.00
518.00	140.00
519.00	160.00
520.00	144.00
521.00	142.00
522.00	135.00
523.00	148.00
524.00	139.00
525.00	143.00
526.00	136.00
527.00	140.00
528.00	136.00
529.00	137.00
530.00	136.00
531.00	140.00
532.00	143.00
533.00	138.00
534.00	138.00
535.00	138.00
536.00	137.00
537.00	140.00
538.00	141.00
539.00	136.00
540.00	135.00
541.00	142.00
542.00	142.00
543.00	134.00
544.00	141.00
545.00	136.00
546.00	139.00
547.00	189.00
548.00	147.00
549.00	134.00
550.00	136.00
551.00	135.00
552.00	138.00
553.00	139.00
554.00	142.00
555.00	141.00
556.00	142.00
557.00	145.00
558.00	144.00
559.00	142.00
560.00	152.00
561.00	229.00
562.00	159.00
563.00	160.00
564.00	150.00
565.00	141.00
566.00	139.00
567.00	140.00
568.00	144.00
569.00	139.00
570.00	144.00
571.00	138.00
572.00	139.00
573.00	148.00
574.00	151.00
575.00	151.00
576.00	153.00
577.00	146.00
578.00	142.00
579.00	143.00
580.00	139.00
581.00	140.00
582.00	141.00
583.00	137.00
584.00	138.00
585.00	137.00
586.00	136.00
587.00	147.00
588.00	140.00
589.00	141.00
590.00	143.00
591.00	136.00
592.00	138.00
593.00	139.00
594.00	140.00
595.00	146.00
596.00	140.00
597.00	136.00
598.00	142.00
599.00	139.00
600.00	143.00
601.00	140.00
602.00	147.00
603.00	143.00
604.00	144.00
605.00	154.00
606.00	163.00
607.00	171.00
608.00	168.00
609.00	154.00
610.00	156.00
611.00	146.00
612.00	143.00
613.00	139.00
614.00	135.00
615.00	139.00
616.00	140.00
617.00	138.00
618.00	136.00
619.00	146.00
620.00	141.00
621.00	138.00
622.00	137.00
623.00	138.00
624.00	140.00
625.00	143.00
626.00	145.00
627.00	158.00
628.00	181.00
629.00	202.00
630.00	199.00
631.00	194.00
632.00	178.00
633.00	188.00
634.00	155.00
635.00	146.00
636.00	146.00
637.00	139.00
638.00	136.00
639.00	134.00
640.00	135.00
641.00	169.00
642.00	145.00
643.00	146.00
644.00	141.00
645.00	163.00
646.00	142.00
647.00	142.00
648.00	142.00
649.00	143.00
650.00	139.00
651.00	159.00
652.00	158.00
653.00	197.00
654.00	241.00
655.00	320.00
656.00	357.00
657.00	327.00
658.00	333.00
659.00	252.00
660.00	221.00
661.00	199.00
662.00	169.00
663.00	162.00
664.00	147.00
665.00	149.00
666.00	156.00
667.00	157.00
668.00	173.00
669.00	182.00
670.00	192.00
671.00	192.00
672.00	186.00
673.00	184.00
674.00	167.00
675.00	161.00
676.00	146.00
677.00	145.00
678.00	147.00
679.00	140.00
680.00	137.00
681.00	142.00
682.00	141.00
683.00	139.00
684.00	143.00
685.00	140.00
686.00	140.00
687.00	136.00
688.00	146.00
689.00	172.00
690.00	175.00
691.00	174.00
692.00	182.00
693.00	172.00
694.00	163.00
695.00	162.00
696.00	155.00
697.00	153.00
698.00	145.00
699.00	150.00
700.00	140.00
701.00	141.00
702.00	137.00
703.00	138.00
704.00	144.00
705.00	137.00
706.00	139.00
707.00	138.00
708.00	136.00
709.00	141.00
710.00	136.00
711.00	134.00
712.00	140.00
713.00	139.00
714.00	141.00
715.00	157.00
716.00	150.00
717.00	141.00
718.00	140.00
719.00	144.00
720.00	147.00
721.00	154.00
722.00	153.00
723.00	165.00
724.00	176.00
725.00	177.00
726.00	172.00
727.00	160.00
728.00	152.00
729.00	154.00
730.00	160.00
731.00	158.00
732.00	161.00
733.00	175.00
734.00	152.00
735.00	158.00
736.00	172.00
737.00	153.00
738.00	146.00
739.00	145.00
740.00	146.00
741.00	140.00
742.00	137.00
743.00	152.00
744.00	159.00
745.00	158.00
746.00	161.00
747.00	158.00
748.00	152.00
749.00	152.00
750.00	160.00
751.00	156.00
752.00	164.00
753.00	241.00
754.00	165.00
755.00	159.00
756.00	153.00
757.00	155.00
758.00	156.00
759.00	154.00
760.00	155.00
761.00	147.00
762.00	145.00
763.00	147.00
764.00	148.00
765.00	149.00
766.00	148.00
767.00	146.00
768.00	146.00
769.00	145.00
770.00	144.00
771.00	146.00
772.00	147.00
773.00	156.00
774.00	155.00
775.00	150.00
776.00	164.00
777.00	152.00
778.00	146.00
779.00	180.00
780.00	156.00
781.00	151.00
782.00	150.00
783.00	150.00
784.00	147.00
785.00	154.00
786.00	160.00
787.00	144.00
788.00	145.00
789.00	145.00
790.00	150.00
791.00	200.00
792.00	157.00
793.00	186.00
794.00	194.00
795.00	216.00
796.00	231.00
797.00	234.00
798.00	246.00
799.00	252.00
800.00	257.00
801.00	223.00
802.00	206.00
803.00	190.00
804.00	172.00
805.00	171.00
806.00	162.00
807.00	153.00
808.00	148.00
809.00	141.00
810.00	146.00
811.00	144.00
812.00	146.00
813.00	143.00
814.00	146.00
815.00	143.00
816.00	147.00
817.00	145.00
818.00	143.00
819.00	201.00
820.00	151.00
821.00	144.00
822.00	151.00
823.00	143.00
824.00	177.00
825.00	147.00
826.00	149.00
827.00	138.00
828.00	140.00
829.00	142.00
830.00	148.00
831.00	140.00
832.00	142.00
833.00	142.00
834.00	138.00
835.00	139.00
836.00	145.00
837.00	146.00
838.00	167.00
839.00	147.00
840.00	143.00
841.00	139.00
842.00	143.00
843.00	148.00
844.00	143.00
845.00	140.00
846.00	141.00
847.00	135.00
848.00	137.00
849.00	137.00
850.00	140.00
851.00	139.00
852.00	138.00
853.00	167.00
854.00	138.00
855.00	141.00
856.00	146.00
857.00	161.00
858.00	174.00
859.00	189.00
860.00	213.00
861.00	196.00
862.00	191.00
863.00	173.00
864.00	158.00
865.00	165.00
866.00	153.00
867.00	148.00
868.00	141.00
869.00	142.00
870.00	141.00
871.00	141.00
872.00	143.00
873.00	143.00
874.00	138.00
875.00	140.00
876.00	140.00
877.00	136.00
878.00	138.00
879.00	136.00
880.00	138.00
881.00	136.00
882.00	135.00
883.00	137.00
884.00	140.00
885.00	143.00
886.00	142.00
887.00	135.00
888.00	137.00
889.00	141.00
890.00	187.00
891.00	175.00
892.00	143.00
893.00	138.00
894.00	136.00
895.00	139.00
896.00	145.00
897.00	142.00
898.00	139.00
899.00	140.00
900.00	138.00
901.00	141.00
902.00	144.00
903.00	134.00
904.00	135.00
905.00	177.00
906.00	141.00
907.00	136.00
908.00	134.00
909.00	139.00
910.00	136.00
911.00	137.00
912.00	139.00
913.00	137.00
914.00	141.00
915.00	144.00
916.00	139.00
917.00	143.00
918.00	150.00
919.00	140.00
920.00	136.00
921.00	137.00
922.00	137.00
923.00	140.00
924.00	138.00
925.00	137.00
926.00	137.00
927.00	137.00
928.00	138.00
929.00	142.00
930.00	136.00
931.00	140.00
932.00	135.00
933.00	136.00
934.00	145.00
935.00	141.00
936.00	181.00
937.00	141.00
938.00	135.00
939.00	137.00
940.00	170.00
941.00	146.00
942.00	176.00
943.00	150.00
944.00	138.00
945.00	135.00
946.00	138.00
947.00	143.00
948.00	153.00
949.00	145.00
950.00	137.00
951.00	140.00
952.00	143.00
953.00	140.00
954.00	145.00
955.00	140.00
956.00	140.00
957.00	144.00
958.00	138.00
959.00	148.00
960.00	137.00
961.00	139.00
962.00	161.00
963.00	141.00
964.00	141.00
965.00	142.00
966.00	171.00
967.00	144.00
968.00	142.00
969.00	138.00
970.00	138.00
971.00	136.00
972.00	138.00
973.00	134.00
974.00	138.00
975.00	196.00
976.00	151.00
977.00	146.00
978.00	138.00
979.00	140.00
980.00	139.00
981.00	143.00
982.00	142.00
983.00	135.00
984.00	136.00
985.00	136.00
986.00	196.00
987.00	150.00
988.00	150.00
989.00	144.00
990.00	138.00
991.00	140.00
992.00	136.00
993.00	134.00
994.00	141.00
995.00	137.00
996.00	138.00
997.00	138.00
998.00	139.00
999.00	162.00
1000.00	159.00
1001.00	138.00
1002.00	139.00
1003.00	136.00
1004.00	136.00
1005.00	137.00
1006.00	139.00
1007.00	142.00
1008.00	144.00
1009.00	135.00
1010.00	136.00
1011.00	137.00
1012.00	136.00
1013.00	136.00
1014.00	138.00
1015.00	133.00
1016.00	137.00
1017.00	152.00
1018.00	142.00
1019.00	144.00
1020.00	141.00
1021.00	150.00
1022.00	142.00
1023.00	144.00
1024.00	136.00
1025.00	138.00
1026.00	139.00
1027.00	136.00
1028.00	134.00
1029.00	132.00
1030.00	154.00
1031.00	138.00
1032.00	134.00
1033.00	135.00
1034.00	139.00
1035.00	137.00
1036.00	142.00
1037.00	145.00
1038.00	140.00
1039.00	138.00
1040.00	138.00
1041.00	145.00
1042.00	139.00
1043.00	137.00
1044.00	185.00
1045.00	149.00
1046.00	146.00
1047.00	145.00
1048.00	137.00
1049.00	136.00
1050.00	135.00
1051.00	135.00
1052.00	140.00
1053.00	137.00
1054.00	134.00
1055.00	147.00
1056.00	148.00
1057.00	140.00
1058.00	150.00
1059.00	144.00
1060.00	139.00
1061.00	139.00
1062.00	147.00
1063.00	140.00
1064.00	153.00
1065.00	147.00
1066.00	144.00
1067.00	142.00
1068.00	143.00
1069.00	141.00
1070.00	141.00
1071.00	146.00
1072.00	148.00
1073.00	144.00
1074.00	143.00
1075.00	144.00
1076.00	149.00
1077.00	152.00
1078.00	154.00
1079.00	159.00
1080.00	167.00
1081.00	164.00
1082.00	160.00
1083.00	160.00
1084.00	161.00
1085.00	162.00
1086.00	176.00
1087.00	168.00
1088.00	171.00
1089.00	170.00
1090.00	169.00
1091.00	177.00
1092.00	181.00
1093.00	193.00
1094.00	204.00
1095.00	194.00
1096.00	234.00
1097.00	199.00
1098.00	196.00
1099.00	209.00
1100.00	199.00
1101.00	254.00
1102.00	203.00
1103.00	204.00
1104.00	196.00
1105.00	204.00
1106.00	198.00
1107.00	202.00
1108.00	203.00
1109.00	199.00
1110.00	200.00
1111.00	186.00
1112.00	196.00
1113.00	211.00
1114.00	210.00
1115.00	201.00
1116.00	222.00
1117.00	201.00
1118.00	200.00
1119.00	196.00
1120.00	187.00
1121.00	197.00
1122.00	177.00
1123.00	173.00
1124.00	178.00
1125.00	173.00
1126.00	170.00
1127.00	158.00
1128.00	151.00
1129.00	153.00
1130.00	152.00
1131.00	148.00
1132.00	153.00
1133.00	162.00
1134.00	163.00
1135.00	158.00
1136.00	156.00
1137.00	158.00
1138.00	151.00
1139.00	160.00
1140.00	173.00
1141.00	156.00
1142.00	155.00
1143.00	196.00
1144.00	152.00
1145.00	156.00
1146.00	152.00
1147.00	152.00
1148.00	149.00
1149.00	148.00
1150.00	159.00
1151.00	153.00
1152.00	151.00
1153.00	150.00
1154.00	146.00
1155.00	150.00
1156.00	143.00
1157.00	144.00
1158.00	161.00
1159.00	146.00
1160.00	142.00
1161.00	156.00
1162.00	149.00
1163.00	152.00
1164.00	150.00
1165.00	149.00
1166.00	148.00
1167.00	148.00
1168.00	159.00
1169.00	147.00
1170.00	148.00
1171.00	145.00
1172.00	143.00
1173.00	145.00
1174.00	139.00
1175.00	141.00
1176.00	145.00
1177.00	141.00
1178.00	140.00
1179.00	145.00
1180.00	147.00
1181.00	146.00
1182.00	156.00
1183.00	144.00
1184.00	136.00
1185.00	134.00
1186.00	139.00
1187.00	138.00
1188.00	141.00
1189.00	138.00
1190.00	150.00
1191.00	148.00
1192.00	136.00
1193.00	141.00
1194.00	148.00
1195.00	144.00
1196.00	139.00
1197.00	136.00
1198.00	144.00
1199.00	141.00
1200.00	137.00
1201.00	142.00
1202.00	160.00
1203.00	143.00
1204.00	143.00
1205.00	144.00
1206.00	170.00
1207.00	146.00
1208.00	140.00
1209.00	141.00
1210.00	138.00
1211.00	140.00
1212.00	140.00
1213.00	136.00
1214.00	136.00
1215.00	139.00
1216.00	145.00
1217.00	142.00
1218.00	137.00
1219.00	142.00
1220.00	141.00
1221.00	162.00
1222.00	147.00
1223.00	137.00
1224.00	133.00
1225.00	134.00
1226.00	141.00
1227.00	137.00
1228.00	146.00
1229.00	138.00
1230.00	132.00
1231.00	132.00
1232.00	132.00
1233.00	138.00
1234.00	136.00
1235.00	138.00
1236.00	136.00
1237.00	134.00
1238.00	134.00
1239.00	144.00
1240.00	140.00
1241.00	131.00
1242.00	134.00
1243.00	140.00
1244.00	144.00
1245.00	148.00
1246.00	142.00
1247.00	161.00
1248.00	141.00
1249.00	136.00
1250.00	140.00
1251.00	138.00
1252.00	143.00
1253.00	137.00
1254.00	133.00
1255.00	138.00
1256.00	144.00
1257.00	139.00
1258.00	137.00
1259.00	155.00
1260.00	141.00
1261.00	139.00
1262.00	138.00
1263.00	134.00
1264.00	158.00
1265.00	138.00
1266.00	140.00
1267.00	136.00
1268.00	137.00
1269.00	135.00
1270.00	138.00
1271.00	142.00
1272.00	142.00
1273.00	144.00
1274.00	147.00
1275.00	144.00
1276.00	145.00
1277.00	142.00
1278.00	142.00
1279.00	140.00
1280.00	141.00
1281.00	142.00
1282.00	135.00
1283.00	137.00
1284.00	143.00
1285.00	141.00
1286.00	138.00
1287.00	136.00
1288.00	133.00
1289.00	136.00
1290.00	134.00
1291.00	143.00
1292.00	138.00
1293.00	132.00
1294.00	141.00
1295.00	135.00
1296.00	142.00
1297.00	142.00
1298.00	135.00
1299.00	141.00
1300.00	142.00
1301.00	139.00
1302.00	139.00
1303.00	138.00
1304.00	141.00
1305.00	138.00
1306.00	145.00
1307.00	143.00
1308.00	144.00
1309.00	152.00
1310.00	145.00
1311.00	140.00
1312.00	144.00
1313.00	139.00
1314.00	186.00
1315.00	150.00
1316.00	165.00
1317.00	146.00
1318.00	143.00
1319.00	146.00
1320.00	145.00
1321.00	148.00
1322.00	150.00
1323.00	145.00
1324.00	145.00
1325.00	148.00
1326.00	142.00
1327.00	145.00
1328.00	150.00
1329.00	147.00
1330.00	156.00
1331.00	157.00
1332.00	145.00
1333.00	143.00
1334.00	149.00
1335.00	149.00
1336.00	149.00
1337.00	150.00
1338.00	159.00
1339.00	157.00
1340.00	200.00
1341.00	160.00
1342.00	152.00
1343.00	152.00
1344.00	160.00
1345.00	154.00
1346.00	162.00
1347.00	156.00
1348.00	155.00
1349.00	155.00
1350.00	159.00
1351.00	169.00
1352.00	156.00
1353.00	159.00
1354.00	175.00
1355.00	170.00
1356.00	197.00
1357.00	379.00
1358.00	666.00
1359.00	956.00
1360.00	1052.00
1361.00	987.00
1362.00	778.00
1363.00	659.00
1364.00	572.00
1365.00	510.00
1366.00	463.00
1367.00	443.00
1368.00	410.00
1369.00	368.00
1370.00	306.00
1371.00	245.00
1372.00	207.00
1373.00	215.00
1374.00	181.00
1375.00	172.00
1376.00	214.00
1377.00	275.00
1378.00	298.00
1379.00	312.00
1380.00	295.00
1381.00	262.00
1382.00	256.00
1383.00	221.00
1384.00	214.00
1385.00	204.00
1386.00	249.00
1387.00	194.00
1388.00	188.00
1389.00	197.00
1390.00	165.00
1391.00	157.00
1392.00	152.00
1393.00	154.00
1394.00	151.00
1395.00	155.00
1396.00	159.00
1397.00	158.00
1398.00	149.00
1399.00	149.00
1400.00	157.00
1401.00	146.00
1402.00	148.00
1403.00	147.00
1404.00	154.00
1405.00	149.00
1406.00	151.00
1407.00	152.00
1408.00	149.00
1409.00	264.00
1410.00	151.00
1411.00	150.00
1412.00	162.00
1413.00	160.00
1414.00	154.00
1415.00	157.00
1416.00	214.00
1417.00	249.00
1418.00	293.00
1419.00	352.00
1420.00	307.00
1421.00	296.00
1422.00	258.00
1423.00	230.00
1424.00	213.00
1425.00	203.00
1426.00	201.00
1427.00	192.00
1428.00	191.00
1429.00	180.00
1430.00	176.00
1431.00	154.00
1432.00	146.00
1433.00	143.00
1434.00	153.00
1435.00	151.00
1436.00	163.00
1437.00	165.00
1438.00	178.00
1439.00	185.00
1440.00	186.00
1441.00	174.00
1442.00	199.00
1443.00	171.00
1444.00	173.00
1445.00	183.00
1446.00	164.00
1447.00	149.00
1448.00	158.00
1449.00	149.00
1450.00	150.00
1451.00	145.00
1452.00	155.00
1453.00	155.00
1454.00	144.00
1455.00	151.00
1456.00	146.00
1457.00	146.00
1458.00	146.00
1459.00	143.00
1460.00	146.00
1461.00	146.00
1462.00	139.00
1463.00	140.00
1464.00	145.00
1465.00	140.00
1466.00	157.00
1467.00	147.00
1468.00	142.00
1469.00	140.00
1470.00	140.00
1471.00	156.00
1472.00	172.00
1473.00	199.00
1474.00	217.00
1475.00	209.00
1476.00	199.00
1477.00	183.00
1478.00	171.00
1479.00	168.00
1480.00	252.00
1481.00	170.00
1482.00	156.00
1483.00	161.00
1484.00	157.00
1485.00	150.00
1486.00	147.00
1487.00	191.00
1488.00	150.00
1489.00	142.00
1490.00	139.00
1491.00	164.00
1492.00	150.00
1493.00	174.00
1494.00	152.00
1495.00	142.00
1496.00	140.00
1497.00	143.00
1498.00	142.00
1499.00	151.00
1500.00	159.00
1501.00	219.00
1502.00	267.00
1503.00	294.00
1504.00	281.00
1505.00	270.00
1506.00	229.00
1507.00	214.00
1508.00	202.00
1509.00	198.00
1510.00	202.00
1511.00	183.00
1512.00	189.00
1513.00	186.00
1514.00	181.00
1515.00	263.00
1516.00	366.00
1517.00	429.00
1518.00	508.00
1519.00	394.00
1520.00	342.00
1521.00	300.00
1522.00	291.00
1523.00	260.00
1524.00	308.00
1525.00	274.00
1526.00	289.00
1527.00	306.00
1528.00	313.00
1529.00	302.00
1530.00	279.00
1531.00	268.00
1532.00	256.00
1533.00	242.00
1534.00	249.00
1535.00	232.00
1536.00	225.00
1537.00	268.00
1538.00	220.00
1539.00	219.00
1540.00	210.00
1541.00	202.00
1542.00	197.00
1543.00	186.00
1544.00	185.00
1545.00	202.00
1546.00	332.00
1547.00	486.00
1548.00	590.00
1549.00	625.00
1550.00	527.00
1551.00	446.00
1552.00	364.00
1553.00	329.00
1554.00	295.00
1555.00	287.00
1556.00	289.00
1557.00	272.00
1558.00	256.00
1559.00	262.00
1560.00	295.00
1561.00	328.00
1562.00	366.00
1563.00	324.00
1564.00	301.00
1565.00	265.00
1566.00	231.00
1567.00	215.00
1568.00	201.00
1569.00	198.00
1570.00	196.00
1571.00	193.00
1572.00	240.00
1573.00	179.00
1574.00	162.00
1575.00	160.00
1576.00	167.00
1577.00	157.00
1578.00	186.00
1579.00	146.00
1580.00	146.00
1581.00	150.00
1582.00	156.00
1583.00	150.00
1584.00	153.00
1585.00	153.00
1586.00	156.00
1587.00	154.00
1588.00	149.00
1589.00	147.00
1590.00	152.00
1591.00	256.00
1592.00	158.00
1593.00	156.00
1594.00	159.00
1595.00	165.00
1596.00	201.00
1597.00	226.00
1598.00	236.00
1599.00	258.00
1600.00	218.00
1601.00	189.00
1602.00	181.00
1603.00	178.00
1604.00	172.00
1605.00	168.00
1606.00	172.00
1607.00	160.00
1608.00	175.00
1609.00	164.00
1610.00	155.00
1611.00	159.00
1612.00	147.00
1613.00	145.00
1614.00	141.00
1615.00	143.00
1616.00	156.00
1617.00	146.00
1618.00	146.00
1619.00	150.00
1620.00	153.00
1621.00	150.00
1622.00	156.00
1623.00	149.00
1624.00	138.00
1625.00	146.00
1626.00	161.00
1627.00	153.00
1628.00	209.00
1629.00	290.00
1630.00	373.00
1631.00	407.00
1632.00	369.00
1633.00	308.00
1634.00	271.00
1635.00	244.00
1636.00	221.00
1637.00	210.00
1638.00	207.00
1639.00	200.00
1640.00	200.00
1641.00	185.00
1642.00	167.00
1643.00	168.00
1644.00	157.00
1645.00	153.00
1646.00	156.00
1647.00	147.00
1648.00	149.00
1649.00	148.00
1650.00	148.00
1651.00	147.00
1652.00	145.00
1653.00	149.00
1654.00	154.00
1655.00	175.00
1656.00	189.00
1657.00	214.00
1658.00	198.00
1659.00	189.00
1660.00	176.00
1661.00	177.00
1662.00	166.00
1663.00	164.00
1664.00	166.00
1665.00	166.00
1666.00	164.00
1667.00	160.00
1668.00	156.00
1669.00	161.00
1670.00	155.00
1671.00	152.00
1672.00	148.00
1673.00	151.00
1674.00	169.00
1675.00	208.00
1676.00	236.00
1677.00	249.00
1678.00	238.00
1679.00	205.00
1680.00	191.00
1681.00	180.00
1682.00	171.00
1683.00	169.00
1684.00	171.00
1685.00	161.00
1686.00	165.00
1687.00	168.00
1688.00	156.00
1689.00	152.00
1690.00	154.00
1691.00	147.00
1692.00	141.00
1693.00	144.00
1694.00	143.00
1695.00	142.00
1696.00	147.00
1697.00	142.00
1698.00	141.00
1699.00	141.00
1700.00	139.00
1701.00	142.00
1702.00	149.00
1703.00	149.00
1704.00	152.00
1705.00	147.00
1706.00	152.00
1707.00	239.00
1708.00	417.00
1709.00	478.00
1710.00	550.00
1711.00	510.00
1712.00	416.00
1713.00	331.00
1714.00	294.00
1715.00	277.00
1716.00	237.00
1717.00	257.00
1718.00	229.00
1719.00	239.00
1720.00	241.00
1721.00	332.00
1722.00	405.00
1723.00	457.00
1724.00	436.00
1725.00	360.00
1726.00	301.00
1727.00	259.00
1728.00	228.00
1729.00	218.00
1730.00	217.00
1731.00	209.00
1732.00	202.00
1733.00	188.00
1734.00	171.00
1735.00	161.00
1736.00	155.00
1737.00	150.00
1738.00	146.00
1739.00	168.00
1740.00	212.00
1741.00	150.00
1742.00	141.00
1743.00	194.00
1744.00	148.00
1745.00	141.00
1746.00	138.00
1747.00	152.00
1748.00	148.00
1749.00	140.00
1750.00	137.00
1751.00	146.00
1752.00	149.00
1753.00	141.00
1754.00	142.00
1755.00	142.00
1756.00	136.00
1757.00	137.00
1758.00	144.00
1759.00	138.00
1760.00	138.00
1761.00	145.00
1762.00	189.00
1763.00	146.00
1764.00	142.00
1765.00	144.00
1766.00	148.00
1767.00	152.00
1768.00	143.00
1769.00	169.00
1770.00	148.00
1771.00	199.00
1772.00	148.00
1773.00	140.00
1774.00	147.00
1775.00	138.00
1776.00	140.00
1777.00	137.00
1778.00	142.00
1779.00	136.00
1780.00	135.00
1781.00	137.00
1782.00	142.00
1783.00	144.00
1784.00	164.00
1785.00	144.00
1786.00	188.00
1787.00	148.00
1788.00	145.00
1789.00	144.00
1790.00	149.00
1791.00	145.00
1792.00	153.00
1793.00	216.00
1794.00	277.00
1795.00	314.00
1796.00	323.00
1797.00	280.00
1798.00	244.00
1799.00	223.00
1800.00	199.00
1801.00	186.00
1802.00	181.00
1803.00	173.00
1804.00	165.00
1805.00	162.00
1806.00	155.00
1807.00	146.00
1808.00	149.00
1809.00	140.00
1810.00	188.00
1811.00	176.00
1812.00	214.00
1813.00	247.00
1814.00	256.00
1815.00	243.00
1816.00	214.00
1817.00	197.00
1818.00	184.00
1819.00	170.00
1820.00	169.00
1821.00	168.00
1822.00	156.00
1823.00	154.00
1824.00	150.00
1825.00	147.00
1826.00	165.00
1827.00	145.00
1828.00	143.00
1829.00	139.00
1830.00	142.00
1831.00	137.00
1832.00	138.00
1833.00	144.00
1834.00	136.00
1835.00	136.00
1836.00	134.00
1837.00	133.00
1838.00	136.00
1839.00	139.00
1840.00	149.00
1841.00	138.00
1842.00	140.00
1843.00	138.00
1844.00	139.00
1845.00	136.00
1846.00	137.00
1847.00	136.00
1848.00	139.00
1849.00	138.00
1850.00	139.00
1851.00	140.00
1852.00	143.00
1853.00	144.00
1854.00	138.00
1855.00	146.00
1856.00	144.00
1857.00	161.00
1858.00	215.00
1859.00	270.00
1860.00	319.00
1861.00	319.00
1862.00	294.00
1863.00	254.00
1864.00	221.00
1865.00	202.00
1866.00	224.00
1867.00	177.00
1868.00	164.00
1869.00	153.00
1870.00	144.00
1871.00	199.00
1872.00	155.00
1873.00	143.00
1874.00	137.00
1875.00	137.00
1876.00	137.00
1877.00	152.00
1878.00	148.00
1879.00	149.00
1880.00	145.00
1881.00	144.00
1882.00	140.00
1883.00	139.00
1884.00	143.00
1885.00	144.00
1886.00	142.00
1887.00	137.00
1888.00	137.00
1889.00	135.00
1890.00	138.00
1891.00	139.00
1892.00	137.00
1893.00	136.00
1894.00	140.00
1895.00	139.00
1896.00	141.00
1897.00	139.00
1898.00	148.00
1899.00	139.00
1900.00	137.00
1901.00	140.00
1902.00	140.00
1903.00	138.00
1904.00	148.00
1905.00	139.00
1906.00	141.00
1907.00	162.00
1908.00	143.00
1909.00	142.00
1910.00	144.00
1911.00	149.00
1912.00	159.00
1913.00	155.00
1914.00	184.00
1915.00	245.00
1916.00	314.00
1917.00	358.00
1918.00	412.00
1919.00	306.00
1920.00	250.00
1921.00	222.00
1922.00	199.00
1923.00	171.00
1924.00	159.00
1925.00	156.00
1926.00	162.00
1927.00	144.00
1928.00	142.00
1929.00	137.00
1930.00	138.00
1931.00	137.00
1932.00	146.00
1933.00	146.00
1934.00	143.00
1935.00	147.00
1936.00	142.00
1937.00	143.00
1938.00	138.00
1939.00	141.00
1940.00	155.00
1941.00	150.00
1942.00	161.00
1943.00	217.00
1944.00	268.00
1945.00	287.00
1946.00	293.00
1947.00	256.00
1948.00	212.00
1949.00	184.00
1950.00	168.00
1951.00	158.00
1952.00	151.00
1953.00	151.00
1954.00	149.00
1955.00	146.00
1956.00	150.00
1957.00	138.00
1958.00	150.00
1959.00	152.00
1960.00	140.00
1961.00	144.00
1962.00	134.00
1963.00	136.00
1964.00	140.00
1965.00	139.00
1966.00	138.00
1967.00	136.00
1968.00	132.00
1969.00	136.00
1970.00	142.00
1971.00	179.00
1972.00	150.00
1973.00	137.00
1974.00	136.00
1975.00	138.00
1976.00	138.00
1977.00	134.00
1978.00	133.00
1979.00	136.00
1980.00	139.00
1981.00	137.00
1982.00	138.00
1983.00	134.00
1984.00	138.00
1985.00	137.00
1986.00	148.00
1987.00	140.00
1988.00	136.00
1989.00	138.00
1990.00	141.00
1991.00	137.00
1992.00	140.00
1993.00	148.00
1994.00	139.00
1995.00	134.00
1996.00	131.00
1997.00	135.00
1998.00	133.00
1999.00	136.00
2000.00	133.00
2001.00	146.00
2002.00	145.00
2003.00	139.00
2004.00	134.00
2005.00	140.00
2006.00	137.00
2007.00	138.00
2008.00	137.00
2009.00	139.00
2010.00	136.00
2011.00	150.00
2012.00	144.00
2013.00	139.00
2014.00	139.00
2015.00	148.00
2016.00	140.00
2017.00	164.00
2018.00	141.00
2019.00	134.00
2020.00	135.00
2021.00	135.00
2022.00	137.00
2023.00	134.00
2024.00	136.00
2025.00	144.00
2026.00	142.00
2027.00	148.00
2028.00	142.00
2029.00	137.00
2030.00	138.00
2031.00	137.00
2032.00	137.00
2033.00	136.00
2034.00	140.00
2035.00	135.00
2036.00	135.00
2037.00	137.00
2038.00	139.00
2039.00	140.00
2040.00	211.00
2041.00	148.00
2042.00	139.00
2043.00	143.00
2044.00	172.00
2045.00	144.00
2046.00	145.00
2047.00	137.00
>>>>>End Processed Spectral Data<<<<<
